Millis,Red,IR
-1,-1,-1
15652,90682,113469
15671,90718,113464
15702,90673,113464
15721,90696,113469
15752,90674,113482
15771,90717,113482
15802,90678,113472
15821,90719,113461
15852,90710,113458
15871,90732,113445
15902,90690,113454
15921,90724,113443
15952,90700,113460
15971,90726,113474
16002,90720,113469
16021,90730,113482
16052,90723,113468
16073,90694,113468
16102,90703,113470
16123,90707,113467
16152,90687,113448
16173,90671,113441
16202,90664,113435
16223,90653,113427
16252,90670,113421
16273,90630,113416
16302,90643,113404
16323,90635,113425
16352,90674,113434
16373,90637,113416
16402,90666,113429
16423,90653,113418
16452,90688,113411
16473,90656,113396
16502,90683,113379
16523,90673,113373
16552,90693,113375
16573,90675,113385
16602,90683,113405
16623,90671,113420
16652,90671,113415
16673,90668,113403
16703,90656,113440
16722,90642,113435
16753,90633,113431
16772,90618,113415
16803,90592,113412
16822,90590,113401
16853,90568,113399
16872,90602,113403
16903,90575,113390
16922,90611,113398
16953,90580,113397
16972,90620,113407
17003,90583,113403
17022,90611,113409
17053,90567,113395
17072,90590,113393
17103,90567,113380
17122,90613,113386
17153,90595,113380
17172,90613,113372
17203,90581,113379
17222,90611,113389
17253,90600,113385
17272,90630,113398
17303,90604,113407
17322,90625,113407
17353,90619,113413
17374,90592,113394
17403,90564,113380
17424,90564,113361
17453,90562,113354
17474,90539,113358
17503,90563,113349
17524,90542,113345
17553,90554,113338
17574,90522,113332
17603,90546,113340
17624,90519,113343
17653,90567,113345
17674,90527,113337
17703,90536,113320
17724,90496,113304
17753,90498,113283
17774,90472,113268
17803,90507,113272
17824,90489,113273
17853,90547,113283
17874,90532,113275
17903,90562,113304
17924,90548,113325
17953,90564,113316
17974,90561,113319
18004,90540,113348
18023,90497,113337
18054,90483,113314
18073,90466,113322
18104,90439,113298
18123,90444,113305
18154,90407,113291
18173,90443,113299
18204,90449,113318
18223,90492,113313
18254,90482,113316
18273,90513,113311
18304,90476,113311
18323,90489,113306
18354,90437,113292
18373,90450,113289
18404,90446,113292
18423,90485,113299
18454,90476,113304
18473,90530,113296
18504,90487,113297
18523,90513,113280
18554,90459,113276
18573,90488,113283
18604,90475,113283
18623,90465,113273
18654,90448,113271
18673,90431,113264
18704,90434,113271
18725,90432,113271
18754,90431,113271
18775,90427,113258
18804,90440,113257
18825,90419,113248
18854,90442,113250
18875,90427,113256
18904,90462,113257
18925,90445,113253
18954,90474,113250
18975,90405,113234
19004,90431,113239
19025,90393,113230
19054,90441,113234
19075,90412,113229
19104,90449,113201
19125,90405,113184
19154,90418,113167
19175,90373,113153
19204,90402,113169
19225,90398,113209
19254,90440,113207
19275,90418,113200
19305,90423,113241
19324,90385,113228
19355,90350,113205
19374,90308,113199
19405,90317,113204
19424,90315,113200
19455,90328,113219
19474,90360,113217
19505,90346,113216
19524,90374,113225
19555,90352,113217
19574,90381,113200
19605,90321,113177
19624,90334,113178
19655,90263,113170
19674,90283,113164
19705,90269,113181
19724,90329,113174
19755,90333,113194
19774,90392,113204
19805,90375,113204
19824,90407,113189
19855,90326,113160
19874,90325,113144
19905,90284,113133
19924,90292,113124
19955,90258,113118
19974,90257,113131
20005,90262,113139
20026,90264,113149
20055,90297,113170
20076,90308,113179
20105,90326,113179
20126,90339,113180
20155,90341,113159
20176,90315,113156
20205,90335,113144
20226,90291,113124
20255,90316,113129
20276,90253,113112
20305,90258,113101
20326,90238,113107
20355,90301,113128
20376,90280,113147
20405,90358,113154
20426,90341,113157
20455,90361,113130
20476,90334,113116
20505,90317,113088
20526,90287,113052
20555,90264,113024
20576,90233,113040
20605,90239,113074
20626,90243,113081
20656,90237,113112
20675,90220,113114
20706,90246,113117
20725,90239,113126
20756,90220,113116
20775,90239,113112
20806,90234,113124
20825,90258,113125
20856,90225,113123
20875,90273,113123
20906,90213,113098
20925,90231,113089
20956,90184,113091
20975,90233,113093
21006,90178,113089
21025,90203,113088
21056,90168,113070
21075,90207,113063
21106,90154,113061
21125,90206,113062
21156,90198,113050
21175,90232,113046
21206,90179,113048
21225,90208,113047
21256,90181,113067
21275,90217,113062
21306,90210,113077
21325,90190,113055
21356,90170,113044
21377,90153,113043
21406,90138,113029
21427,90139,113026
21456,90178,113047
21477,90179,113058
21506,90226,113046
21527,90188,113041
21556,90188,113018
21577,90148,113020
21606,90167,113003
21627,90114,113005
21656,90142,113007
21677,90127,113009
21706,90191,113010
21727,90163,113007
21756,90206,112994
21777,90171,112980
21806,90167,112940
21827,90133,112939
21856,90107,112956
21877,90079,112949
21906,90081,112963
21927,90077,112975
21957,90095,113003
21976,90089,113010
22007,90114,113004
22026,90106,113008
22057,90104,113006
22076,90099,112999
22107,90067,112977
22126,90093,112979
22157,90068,112975
22176,90087,112980
22207,90075,112991
22226,90087,113000
22257,90058,112983
22276,90078,112967
22307,90039,112945
22326,90057,112949
22357,90046,112936
22376,90066,112933
22407,90027,112939
22426,90073,112934
22457,90018,112925
22476,90042,112933
22507,90023,112941
22526,90048,112938
22557,90035,112946
22578,90033,112947
22607,90056,112953
22628,90058,112950
22657,90054,112947
22678,90031,112942
22707,90048,112932
22728,90040,112928
22757,90061,112943
22778,90047,112933
22807,90073,112936
22828,90028,112931
22857,90057,112928
22878,90005,112923
22907,90029,112919
22928,90023,112916
22957,90069,112926
22978,90043,112902
23007,90070,112888
23028,90027,112867
23057,90017,112859
23078,89979,112814
23107,89966,112848
23128,89959,112861
23157,89987,112865
23178,89997,112880
23208,90010,112917
23227,89986,112911
23258,89999,112918
23277,89987,112901
23308,89968,112893
23327,89979,112888
23358,89955,112896
23377,89974,112899
23408,89983,112906
23427,90016,112915
23458,89993,112904
23477,89990,112894
23508,89961,112894
23527,89987,112891
23558,89940,112877
23577,89963,112874
23608,89960,112891
23627,90012,112882
23658,89991,112879
23677,90005,112866
23708,89951,112864
23727,89986,112846
23758,89940,112849
23777,89956,112846
23808,89949,112866
23827,89966,112868
23858,89944,112861
23879,89944,112879
23908,89968,112876
23929,89981,112887
23958,89974,112885
23979,89948,112856
24008,89961,112859
24029,89940,112850
24058,89969,112859
24079,89943,112860
24108,89979,112861
24129,89945,112859
24158,89968,112853
24179,89926,112857
24208,89952,112854
24229,89928,112857
24258,89959,112851
24279,89948,112844
24308,89971,112830
24329,89951,112820
24358,89961,112795
24379,89950,112787
24408,89949,112795
24429,89943,112811
24458,89934,112811
24479,89895,112811
24509,89873,112826
24528,89855,112836
24559,89883,112848
24578,89880,112845
24609,89877,112846
24628,89885,112849
24659,89872,112839
24678,89890,112845
24709,89870,112832
24728,89897,112832
24759,89894,112839
24778,89918,112849
24809,89901,112852
24828,89905,112845
24859,89863,112835
24878,89884,112835
24909,89859,112825
24928,89885,112823
24959,89872,112822
24978,89915,112829
25009,89873,112813
25028,89911,112814
25059,89895,112825
25078,89928,112836
25109,89927,112863
25128,89947,112856
25159,89920,112843
25180,89878,112822
25209,89830,112813
25230,89824,112793
25259,89805,112804
25280,89819,112794
25309,89850,112804
25330,89875,112816
25359,89897,112817
25380,89871,112818
25409,89895,112810
25430,89855,112800
25459,89852,112793
25480,89818,112790
25509,89848,112802
25530,89845,112818
25559,89879,112800
25580,89863,112801
25609,89874,112773
25630,89857,112767
25659,89864,112745
25680,89849,112759
25709,89866,112786
25730,89875,112786
25759,89875,112799
25780,89859,112793
25810,89859,112821
25829,89838,112831
25860,89844,112828
25879,89837,112845
25910,89833,112824
25929,89817,112813
25960,89773,112788
25979,89773,112788
26010,89758,112795
26029,89788,112792
26060,89787,112802
26079,89813,112814
26110,89800,112829
26129,89831,112818
26160,89794,112812
26179,89803,112796
26210,89759,112785
26229,89796,112784
26260,89772,112789
26279,89819,112778
26310,89803,112801
26329,89844,112800
26360,89825,112804
26379,89845,112807
26410,89810,112809
26429,89812,112803
26460,89804,112803
26481,89792,112814
26510,89793,112820
26531,89813,112812
26560,89822,112820
26581,89788,112794
26610,89777,112770
26631,89742,112758
26660,89756,112772
26681,89728,112780
26710,89761,112761
26731,89727,112772
26760,89768,112788
26781,89761,112782
26810,89783,112754
26831,89762,112731
26860,89784,112732
26881,89756,112729
26910,89764,112743
26931,89756,112741
26960,89768,112757
26981,89756,112773
27011,89752,112789
27030,89727,112793
27061,89742,112802
27080,89725,112798
27111,89717,112790
27130,89723,112781
27161,89691,112774
27180,89715,112765
27211,89673,112763
27230,89689,112752
27261,89650,112763
27280,89676,112765
27311,89647,112755
27330,89668,112755
27361,89641,112740
27380,89684,112743
27411,89653,112744
27430,89696,112736
27461,89676,112744
27480,89717,112748
27511,89692,112757
27530,89727,112769
27561,89713,112777
27580,89715,112776
27611,89708,112775
27632,89695,112766
27661,89691,112776
27682,89685,112768
27711,89701,112769
27732,89697,112764
27761,89706,112757
27782,89667,112756
27811,89675,112738
27832,89648,112733
27861,89655,112723
27882,89618,112729
27911,89651,112732
27932,89634,112738
27961,89676,112737
27982,89659,112740
28011,89695,112720
28032,89666,112707
28061,89676,112694
28082,89668,112689
28111,89686,112708
28132,89675,112712
28161,89687,112732
28182,89673,112740
28212,89683,112778
28231,89663,112776
28262,89667,112773
28281,89659,112765
28312,89653,112768
28331,89662,112761
28362,89615,112758
28381,89643,112752
28412,89608,112738
28431,89626,112729
28462,89582,112726
28481,89599,112729
28512,89574,112731
28531,89589,112735
28562,89567,112729
28581,89624,112739
28612,89612,112729
28631,89650,112734
28662,89622,112739
28681,89667,112731
28712,89631,112743
28731,89671,112752
28762,89643,112748
28781,89663,112751
28812,89653,112761
28833,89644,112760
28862,89637,112760
28883,89638,112754
28912,89646,112747
28933,89628,112745
28962,89646,112730
28983,89623,112723
29012,89637,112713
29033,89604,112710
29062,89605,112697
29083,89552,112686
29112,89562,112687
29133,89547,112678
29162,89564,112686
29183,89535,112678
29212,89570,112676
29233,89560,112656
29262,89594,112647
29283,89576,112641
29312,89600,112637
29333,89583,112655
29362,89593,112670
29383,89577,112675
29413,89556,112686
29432,89528,112701
29463,89554,112701
29482,89531,112701
29513,89437,112571
29532,89167,112464
29563,88914,112472
29582,88897,112397
29613,88341,112006
29632,87940,111827
29663,87438,111602
29682,87168,111469
29713,86612,111250
29732,86260,111083
29763,85592,110780
29782,85166,110601
29813,84389,110329
29832,83893,110131
29863,83043,109917
29882,82576,109818
29913,81689,109640
29932,81219,109505
29963,80610,109357
29982,80373,109276
30013,80065,109166
30032,79955,109115
30063,79806,109047
30084,79770,108989
30113,79713,108930
30134,79710,108889
30163,79700,108824
30184,79688,108785
30213,79716,108730
30234,79712,108689
30263,79752,108630
30284,79751,108574
30313,79952,108561
30334,80208,108599
30363,80737,108721
30384,80938,108784
30413,81632,109115
30434,82284,109450
30463,83505,109955
30484,84086,110129
30513,84279,110224
30534,84461,110414
30563,85291,110813
30584,85896,111068
30614,86409,111196
30633,86251,111162
30664,86460,111378
30683,86792,111587
30714,87531,111834
30733,87605,111858
30764,87896,112056
30783,88070,112108
30814,88299,112234
30833,88533,112351
30864,88772,112482
30883,88879,112514
30914,88922,112578
30933,89033,112607
30964,89141,112702
30983,89384,112854
31014,89651,112977
31033,89788,113049
31064,89953,113187
31083,90081,113229
31114,90186,113295
31133,90226,113303
31164,90244,113307
31185,90232,113300
31214,90108,113255
31235,90146,113313
31264,90283,113391
31285,90355,113435
31314,90539,113516
31335,90579,113503
31364,90271,113290
31385,90020,113209
31414,89854,113061
31435,89652,112942
31464,89399,112785
31485,89184,112663
31514,88727,112405
31535,88333,112203
31564,87786,111916
31585,87400,111706
31614,86793,111424
31635,86321,111250
31664,85682,111007
31685,85213,110830
31714,84561,110607
31735,84083,110444
31765,83291,110256
31784,82731,110169
31815,82012,110002
31834,81622,109896
31865,81214,109779
31884,81090,109735
31915,80954,109654
31934,80940,109601
31965,80910,109555
31984,80924,109521
32015,80857,109503
32034,80889,109470
32065,80837,109422
32084,80858,109404
32115,80841,109365
32134,80887,109334
32165,80918,109289
32184,81016,109257
32215,81217,109256
32234,81540,109352
32265,82184,109617
32284,82609,109739
32315,83134,110070
32334,83737,110395
32365,84659,110846
32386,85418,111207
32415,86265,111492
32436,86526,111621
32465,86801,111778
32486,87093,111950
32515,87729,112211
32536,88117,112397
32565,88653,112693
32586,88947,112954
32615,89705,113292
32636,89819,113319
32665,89789,113250
32686,89831,113278
32715,90090,113372
32736,90278,113494
32765,90611,113654
32786,90618,113623
32815,90470,113585
32836,90529,113655
32865,90723,113694
32886,90800,113741
32916,90913,113869
32935,90921,113892
32966,90912,113884
32985,90922,113910
33016,90967,113926
33035,90961,113937
33066,90954,113922
33085,90926,113882
33116,90646,113704
33135,90529,113671
33166,90366,113561
33185,90257,113476
33216,89992,113349
33235,89835,113258
33266,89458,113030
33285,89156,112814
33316,88586,112562
33335,88306,112393
33366,87825,112158
33385,87476,111972
33416,86869,111747
33435,86523,111594
33466,85873,111341
33485,85443,111152
33516,84729,110912
33537,84232,110753
33566,83524,110586
33587,83169,110535
33616,82710,110466
33637,82509,110427
33666,82338,110375
33687,82251,110356
33716,82193,110316
33737,82102,110283
33766,82037,110251
33787,81940,110221
33816,81904,110189
33837,81840,110166
33866,81822,110121
33887,81776,110088
33916,81761,110050
33937,81710,110008
33966,81707,109925
33987,81732,109882
34016,81830,109850
34037,81913,109837
34066,82134,109829
34087,82596,110016
34117,83042,110188
34136,83417,110431
34167,84268,110830
34186,84903,111199
34217,86023,111636
34236,86364,111757
34267,86713,112017
34286,87130,112159
34317,87869,112493
34336,88312,112648
34367,88345,112659
34386,88380,112764
34417,88897,113058
34436,89448,113236
34467,89793,113452
34486,89845,113390
34517,89778,113524
34536,90204,113648
34567,90479,113767
34586,90557,113786
34617,90473,113863
34636,90672,113929
34667,90891,114031
34686,91097,114097
34717,91147,114128
34738,91056,114161
34767,91280,114256
34788,91352,114264
34817,91491,114320
34838,91507,114314
34867,91476,114340
34888,91522,114362
34917,91589,114354
34938,91568,114327
34967,91474,114300
34988,91413,114321
35017,91536,114345
35038,91448,114288
35067,91359,114197
35088,91231,114129
35117,91151,114072
35138,91086,114031
35167,90981,113980
35188,90875,113937
35217,90610,113761
35238,90366,113648
35268,90008,113463
35287,89636,113236
35318,88994,112906
35337,88578,112693
35368,87906,112355
35387,87470,112183
35418,86774,111894
35437,86343,111717
35468,85621,111470
35487,85308,111363
35518,84742,111170
35537,84408,111066
35568,83811,110917
35587,83484,110851
35618,82999,110725
35637,82832,110674
35668,82535,110598
35687,82448,110545
35718,82290,110513
35737,82262,110462
35768,82210,110440
35787,82243,110423
35818,82221,110393
35837,82202,110350
35868,82197,110330
35889,82219,110298
35918,82290,110245
35939,82348,110213
35968,82554,110201
35989,82780,110274
36018,83414,110538
36039,83865,110719
36068,84345,110893
36089,84676,111150
36118,85730,111645
36139,86399,111950
36168,87182,112285
36189,87525,112413
36218,88063,112665
36239,88440,112866
36268,89143,113275
36289,89619,113542
36318,90317,113893
36339,90640,114029
36368,90760,114117
36389,90821,114214
36419,91115,114339
36438,91287,114394
36469,91596,114578
36488,91714,114658
36519,91730,114658
36538,91805,114668
36569,91861,114605
36588,91922,114617
36619,91850,114644
36638,91845,114690
36669,92008,114753
36688,92028,114736
36719,92040,114770
36738,92066,114770
36769,92088,114801
36788,92159,114804
36819,92108,114787
36838,92138,114798
36869,92182,114852
36888,92297,114853
36919,92173,114800
36938,92102,114733
36969,91782,114522
36988,91525,114385
37019,91195,114147
37040,90871,113975
37069,90377,113703
37090,89950,113453
37119,89231,113078
37140,88735,112831
37169,87923,112414
37190,87368,112200
37219,86646,111919
37240,86143,111750
37269,85582,111565
37290,85152,111431
37319,84560,111243
37340,84131,111143
37369,83680,111033
37390,83406,110968
37419,83129,110881
37440,82984,110833
37469,82871,110790
37490,82859,110743
37519,82834,110755
37540,82814,110759
37569,82786,110728
37590,82775,110729
37620,82776,110737
37639,82753,110721
37670,82750,110711
37689,82736,110689
37720,82724,110673
37739,82773,110638
37770,82804,110606
37789,82914,110582
37820,83110,110593
37839,83455,110732
37870,84280,111190
37889,85118,111538
37920,86145,112087
37939,86980,112428
37970,87888,112773
37989,88349,112902
38020,88545,113022
38039,88871,113267
38070,89566,113667
38089,90256,113944
38120,90819,114140
38139,90560,113836
38170,90409,114115
38189,90935,114348
38220,91609,114609
38241,91771,114807
38270,92047,114951
38291,91997,114832
38320,91926,114760
38341,92017,114796
38370,92013,114806
38391,91907,114808
38420,92055,114881
38441,92094,114891
38470,92266,114968
38491,92298,115034
38520,92447,115080
38541,92456,115085
38570,92493,115045
38591,92418,114999
38620,92294,114895
38641,92149,114831
38670,92082,114736
38691,91935,114653
38720,91660,114464
38741,91359,114306
38770,90805,113939
38791,90338,113660
38821,89495,113278
38840,89036,113096
38871,88491,112814
38890,88062,112587
38921,87384,112311
38940,86988,112168
38971,86456,111984
38990,86091,111825
39021,85459,111616
39040,85040,111450
39071,84254,111245
39090,83767,111155
39121,83239,111012
39140,83045,110958
39171,82834,110899
39190,82781,110862
39221,82678,110799
39240,82691,110790
39271,82661,110748
39290,82724,110733
39321,82707,110705
39340,82780,110673
39371,82836,110660
39390,83014,110650
39421,83409,110791
39442,83906,111054
39471,84752,111381
39492,85246,111610
39521,86145,111999
39542,86697,112293
39571,87544,112584
39592,87807,112657
39621,87993,112742
39642,88155,112876
39671,88796,113222
39692,89312,113532
39721,90050,113800
39742,90080,113679
39771,89781,113719
39792,90154,113928
39821,90739,114116
39842,90942,114255
39871,91040,114195
39892,90889,114264
39921,91322,114510
39942,91605,114668
39972,91906,114888
39991,91962,114901
40022,91838,114824
40041,91849,114832
40072,92081,114956
40091,92253,115055
40122,92370,115104
40141,92286,114991
40172,92148,114968
40191,92283,114994
40222,92392,115073
40241,92486,115125
40272,92484,115184
40291,92580,115217
40322,92675,115250
40341,92748,115272
40372,92846,115299
40391,92895,115291
40422,92717,115187
40441,92557,115098
40472,92262,114853
40491,91777,114393
40522,90617,113826
40541,90051,113527
40572,89164,113127
40593,88644,112874
40622,87792,112443
40643,87120,112230
40672,86273,111921
40693,85771,111770
40722,85151,111561
40743,84792,111475
40772,84344,111353
40793,84110,111306
40822,83790,111210
40843,83654,111171
40872,83597,111158
40893,83446,111133
40922,83344,111088
40943,83257,111053
40972,83235,111000
40993,83219,110978
41022,83253,110947
41043,83259,110930
41072,83367,110907
41093,83456,110893
41122,83737,111011
41143,84261,111302
41173,85327,111809
41192,86003,112139
41223,87050,112633
41242,87702,112867
41273,88577,113218
41292,89080,113445
41323,89467,113621
41342,89630,113730
41373,90038,113946
41392,90453,114085
41423,90973,114412
41442,91385,114683
41473,91653,114824
41492,91779,114886
41523,91810,114715
41542,91950,114760
41573,92153,115039
41592,92390,115154
41623,92597,115201
41642,92647,115114
41673,92497,115062
41692,92534,115108
41723,92508,115138
41742,92597,115119
41773,92571,115124
41792,92612,115141
41823,92638,115178
41844,92636,115203
41873,92730,115282
41894,92806,115312
41923,92805,115249
41944,92684,115194
41973,92588,115135
41994,92430,114989
42023,92193,114883
42044,92076,114817
42073,91811,114612
42094,91498,114413
42123,90918,114071
42144,90497,113826
42173,89854,113456
42194,89364,113200
42223,88667,112816
42244,88091,112554
42273,87403,112312
42294,87056,112173
42323,86517,111984
42344,86104,111850
42374,85500,111679
42393,85122,111583
42424,84637,111436
42443,84320,111368
42474,83924,111288
42493,83704,111224
42524,83398,111140
42543,83299,111096
42574,83143,111036
42593,83136,111006
42624,83091,110957
42643,83148,110937
42674,83144,110911
42693,83189,110879
42724,83232,110839
42743,83367,110818
42774,83736,110943
42793,84120,111099
42824,84844,111469
42843,85625,111837
42874,86498,112136
42893,86841,112356
42924,87716,112806
42943,88445,113171
42974,89463,113660
42995,89891,113801
43024,89805,113836
43045,90239,114074
43074,90868,114242
43095,91116,114472
43124,91509,114618
43145,91445,114593
43174,91694,114725
43195,91836,114790
43224,92073,114966
43245,92205,115093
43274,92551,115247
43295,92664,115237
43324,92656,115130
43345,92574,115120
43374,92594,115211
43395,92740,115283
43424,92848,115336
43445,92933,115383
43475,93055,115442
43494,93057,115450
43525,93070,115440
43544,93022,115451
43575,93022,115512
43594,93154,115514
43625,93100,115440
43644,93123,115481
43675,93178,115495
43694,93189,115498
43725,93113,115464
43744,93110,115467
43775,93105,115471
43794,93175,115484
43825,93192,115512
43844,93281,115528
43875,93264,115527
43894,93281,115499
43925,93236,115486
43944,93245,115476
43975,93205,115471
43994,93208,115471
44025,93176,115472
44044,93188,115473
44075,93196,115488
44096,93212,115500
44125,93226,115499
44146,93227,115502
44175,93242,115484
44196,93211,115466
44225,93220,115462
44246,93176,115445
44275,93177,115432
44296,93136,115436
44325,93172,115430
44346,93141,115429
44375,93156,115444
44396,93143,115438
44425,93174,115430
44446,93172,115425
44475,93192,115395
44496,93165,115402
44525,93195,115404
44546,93179,115388
44575,93168,115396
44596,93138,115387
44626,93114,115412
44645,93077,115413
44676,93058,115395
44695,93057,115401
44726,93067,115404
44745,93101,115417
44776,93091,115410
44795,93104,115404
44826,93067,115396
44845,93085,115390
44876,93021,115368
44895,93059,115366
44926,93037,115365
44945,93083,115360
44976,93054,115376
44995,93114,115382
45026,93085,115383
45045,93095,115385
45076,93068,115371
45097,93042,115366
45126,93028,115361
45147,93046,115363
45176,93034,115360
45197,93024,115344
45226,93019,115331
45247,92996,115312
45276,92994,115296
45297,92965,115311
45326,92997,115302
45347,92963,115295
45376,92993,115309
45397,92978,115304
45426,93011,115298
45447,92973,115292
45476,92998,115256
45497,92968,115228
45526,92974,115224
45547,92954,115218
45576,92973,115239
45597,92960,115255
45627,92967,115303
45646,92934,115302
45677,92949,115306
45696,92924,115282
45727,92901,115263
45746,92912,115264
45777,92879,115259
45796,92893,115236
45827,92857,115230
45846,92873,115236
45877,92843,115234
45896,92852,115237
45927,92805,115215
45946,92838,115203
45977,92825,115196
45996,92863,115199
46027,92849,115216
46046,92897,115216
46077,92850,115204
46096,92885,115202
46127,92845,115206
46146,92860,115197
46177,92828,115192
46198,92818,115194
46227,92831,115192
46248,92834,115194
46277,92844,115187
46298,92827,115180
46327,92827,115163
46348,92815,115154
46377,92819,115157
46398,92781,115138
46427,92788,115125
46448,92753,115132
46477,92768,115118
46498,92729,115114
46527,92758,115084
46548,92719,115062
46577,92751,115055
46598,92743,115063
46627,92787,115114
46648,92790,115126
46678,92778,115144
46697,92745,115137
46728,92719,115106
46747,92679,115087
46778,92637,115074
46797,92647,115056
46828,92652,115081
46847,92691,115099
46878,92700,115105
46897,92739,115112
46928,92705,115098
46947,92717,115091
46978,92641,115072
46997,92652,115044
47028,92617,115041
47047,92652,115039
47078,92637,115042
47097,92682,115033
47128,92630,115036
47147,92676,115029
47178,92630,115026
47197,92653,115027
47228,92623,115029
47247,92651,115030
47278,92613,115033
47299,92632,115037
47328,92630,115030
47349,92644,115020
47378,92631,115024
47399,92633,115009
47428,92643,115006
47449,92613,114998
47478,92615,114978
47499,92564,114989
47528,92597,114977
47549,92563,114982
47578,92595,114988
47599,92567,114967
47628,92619,114962
47649,92595,114940
47678,92603,114925
47699,92566,114905
47728,92548,114910
47749,92521,114898
47778,92526,114911
47799,92519,114936
47829,92543,114977
47848,92524,114970
47879,92543,114972
47898,92527,114969
47929,92508,114944
47948,92507,114947
47979,92476,114932
47998,92489,114930
48029,92475,114943
48048,92516,114947
48079,92501,114962
48098,92516,114946
48129,92472,114944
48148,92499,114908
48179,92451,114893
48198,92484,114897
48229,92440,114898
48248,92499,114915
48279,92516,114935
48298,92551,114956
48329,92527,114946
48348,92524,114926
48379,92441,114889
48400,92408,114872
48429,92382,114854
48450,92379,114853
48479,92416,114887
48500,92445,114901
48529,92492,114920
48550,92491,114906
48579,92510,114887
48600,92429,114875
48629,92433,114842
48650,92379,114836
48679,92407,114841
48700,92381,114844
48729,92431,114822
48750,92433,114827
48779,92460,114810
48800,92435,114810
48829,92429,114820
48850,92394,114833
48879,92400,114832
48900,92385,114838
48930,92403,114883
48949,92382,114883
48980,92384,114871
48999,92366,114851
49030,92322,114833
49049,92324,114823
49080,92284,114813
49099,92310,114814
49130,92292,114819
49149,92330,114829
49180,92305,114823
49199,92324,114828
49230,92293,114830
49249,92356,114824
49280,92316,114819
49299,92367,114814
49330,92301,114809
49349,92342,114795
49380,92305,114792
49399,92341,114809
49430,92322,114823
49449,92351,114836
49480,92330,114821
49501,92326,114817
49530,92313,114820
49551,92308,114808
49580,92287,114789
49601,92279,114793
49630,92295,114786
49651,92290,114773
49680,92303,114779
49701,92236,114755
49730,92250,114744
49751,92220,114732
49780,92232,114726
49801,92203,114722
49830,92236,114718
49851,92238,114724
49880,92291,114715
49901,92267,114712
49930,92286,114724
49951,92270,114725
49980,92244,114702
50001,92222,114714
50031,92213,114749
50050,92192,114755
50081,92215,114762
50100,92206,114773
50131,92211,114752
50150,92220,114750
50181,92187,114752
50200,92199,114740
50231,92173,114730
50250,92198,114726
50281,92159,114730
50300,92193,114736
50331,92166,114738
50350,92179,114721
50381,92111,114696
50400,92131,114676
50431,92098,114673
50450,92122,114673
50481,92096,114659
50500,92139,114669
50531,92128,114683
50550,92165,114684
50581,92141,114696
50600,92173,114693
50631,92147,114689
50652,92131,114676
50681,92121,114690
50702,92129,114693
50731,92164,114695
50752,92132,114689
50781,92152,114675
50802,92117,114640
50831,92116,114635
50852,92066,114628
50881,92093,114625
50902,92055,114633
50931,92099,114656
50952,92099,114651
50981,92110,114646
51002,92073,114627
51031,92063,114580
51052,92030,114551
51081,91994,114514
51102,91976,114529
51131,92064,114612
51152,92118,114655
51181,92158,114665
51202,92141,114652
51232,92058,114609
51251,91982,114577
51282,91902,114547
51301,91909,114558
51332,91941,114594
51351,92028,114628
51382,92071,114669
51401,92134,114659
51432,92078,114637
51451,92065,114605
51482,91976,114583
51501,91967,114569
51532,91927,114563
51551,91980,114589
51582,91993,114600
51601,92036,114603
51632,92024,114601
51651,92057,114592
51682,91987,114557
51701,91978,114542
51732,91918,114526
51751,91908,114514
51782,91885,114520
51801,91897,114529
51832,91911,114536
51853,91925,114552
51882,91962,114558
51903,91952,114573
51932,91983,114556
51953,91959,114555
51982,92004,114569
52003,91964,114553
52032,91978,114533
52053,91920,114524
52082,91925,114509
52103,91876,114503
52132,91896,114493
52153,91861,114484
52182,91894,114465
52203,91892,114481
52232,91949,114466
52253,91940,114477
52282,91956,114487
52303,91953,114491
52332,91950,114524
52353,91928,114494
52383,91880,114507
52402,91848,114489
52433,91822,114481
52452,91823,114499
52483,91853,114514
52502,91883,114524
52533,91887,114537
52552,91911,114518
52583,91844,114485
52602,91867,114479
52633,91828,114475
52652,91853,114474
52683,91813,114486
52702,91854,114493
52733,91823,114487
52752,91861,114471
52783,91823,114453
52802,91829,114443
52833,91801,114451
52852,91853,114459
52883,91826,114449
52902,91869,114449
52933,91840,114481
52952,91878,114488
52983,91873,114497
53002,91860,114495
53033,91829,114471
53054,91820,114458
53083,91769,114416
53104,91723,114394
53133,91704,114370
53154,91682,114367
53183,91726,114376
53204,91727,114377
53233,91742,114365
53254,91690,114365
53283,91720,114366
53304,91714,114376
53333,91757,114385
53354,91740,114383
53383,91767,114384
53404,91747,114383
53433,91820,114409
53454,91832,114407
53483,91838,114404
53504,91835,114397
53533,91807,114409
53554,91795,114395
53584,91770,114405
53603,91713,114373
53634,91640,114321
53653,91585,114299
53684,91584,114302
53703,91598,114320
53734,91609,114322
53753,91634,114326
53784,91605,114331
53803,91631,114326
53834,91594,114305
53853,91611,114313
53884,91569,114307
53903,91589,114314
53934,91586,114327
53953,91643,114316
53984,91618,114298
54003,91633,114290
54034,91551,114251
54053,91573,114246
54084,91508,114225
54103,91505,114220
54134,91475,114228
54153,91512,114240
54184,91548,114269
54205,91547,114259
54234,91519,114239
54255,91493,114216
54284,91493,114216
54305,91470,114194
54334,91466,114165
54355,91407,114147
54384,91381,114109
54405,91307,114101
54434,91324,114090
54455,91294,114100
54484,91344,114105
54505,91325,114120
54534,91389,114128
54555,91382,114149
54584,91456,114128
54605,91448,114137
54634,91492,114131
54655,91484,114140
54684,91489,114153
54705,91498,114171
54734,91555,114216
54755,91556,114208
54785,91534,114219
54804,91479,114207
54835,91432,114160
54854,91360,114127
54885,91315,114111
54904,91304,114109
54935,91305,114122
54954,91342,114130
54985,91311,114118
55004,91342,114112
55035,91285,114100
55054,91308,114084
55085,91272,114088
55104,91310,114096
55135,91284,114114
55154,91327,114128
55185,91315,114127
55204,91349,114131
55235,91339,114135
55254,91391,114129
55285,91329,114093
55304,91335,114060
55335,91222,114018
55354,91208,113990
55385,91146,113981
55404,91174,113983
55435,91160,113981
55454,91149,113980
55485,91134,113976
55504,91141,113982
55535,91111,113968
55556,91097,113968
55585,91109,113975
55606,91140,113988
55635,91168,113995
55656,91152,113987
55685,91184,113992
55706,91160,113990
55735,91181,113997
55756,91190,114005
55785,91241,114016
55806,91203,114022
55835,91255,114029
55856,91195,114017
55885,91189,113970
55906,91139,113953
55935,91106,113934
55956,91096,113919
55985,91114,113918
56006,91112,113928
56035,91166,113943
56056,91177,113948
56085,91185,113909
56106,91156,113902
56135,91144,113928
56156,91142,113945
56185,91164,113963
56206,91181,113984
56236,91196,114022
56255,91178,114026
56286,91152,113998
56305,91133,113975
56336,91077,113936
56355,91062,113926
56386,91009,113908
56405,91041,113900
56436,90974,113893
56455,91004,113896
56486,90977,113894
56505,91020,113899
56536,91003,113884
56555,91030,113881
56586,91017,113890
56605,91066,113904
56636,91080,113934
56655,91134,113956
56686,91133,113960
56705,91133,113966
56736,91106,113947
56757,91102,113945
56786,91090,113923
56807,91067,113918
56836,91098,113910
56857,91064,113897
56886,91074,113887
56907,91011,113884
56936,91032,113867
56957,90996,113857
56986,91000,113845
57007,90990,113839
57036,90991,113824
57057,90986,113803
57086,90971,113782
57107,90961,113779
57136,90955,113822
57157,90958,113839
57187,90987,113890
57206,91013,113905
57237,91021,113898
57256,91005,113893
57287,90991,113882
57306,90995,113879
57337,90938,113837
57356,90956,113847
57387,90922,113851
57406,90975,113836
57437,90921,113812
57456,90902,113787
57487,90837,113779
57506,90851,113784
57537,90847,113810
57556,90905,113817
57587,90930,113851
57606,90979,113845
57637,90932,113833
57656,90975,113840
57687,90920,113809
57706,90950,113798
57737,90904,113797
57756,90915,113787
57787,90896,113794
57806,90913,113800
57837,90892,113796
57856,90889,113782
57887,90887,113792
57908,90885,113794
57937,90824,113736
57958,90758,113692
57987,90726,113697
58008,90738,113732
58037,90861,113774
58058,90913,113831
58087,91072,113903
58108,91093,113936
58137,91134,113903
58158,91031,113822
58187,90819,113662
58208,90584,113560
58237,90619,113687
58258,90905,113905
58287,91293,114053
58308,91295,113994
58337,91032,113768
58358,90825,113645
58387,90576,113450
58408,90383,113400
58437,90400,113495
58458,90528,113587
58488,90768,113772
58507,90958,113863
58538,91099,113907
58557,91082,113863
58588,90930,113739
58607,90851,113704
58638,90739,113625
58657,90668,113541
58688,90474,113439
58707,90442,113417
58738,90455,113487
58757,90566,113517
58788,90598,113560
58807,90640,113556
58838,90583,113543
58857,90596,113503
58888,90438,113250
58907,89776,112809
58938,88936,112483
58957,88665,112337
58988,88388,112274
59007,88389,112269
59038,88229,112224
59057,88187,112260
59088,88788,112954
59107,89823,113155
59138,89831,112879
59157,89212,112580
59188,87981,111912
59209,87228,111620
59238,86734,111394
59259,86583,111215
59288,86244,110864
59309,85889,110737
59338,86508,112281
59359,88751,114684
59388,91784,118298
59409,94932,121690
59438,99201,125235
59459,100011,124436
59488,98932,122847
59509,98272,122239
59538,97749,121485
59559,96627,120326
59588,93615,118487
59609,92137,117519
59638,91541,117018
59659,91166,116588
59688,89478,115378
59709,88074,114639
59738,86339,113931
59759,85552,113634
59789,84714,113438
59808,84266,113267
59839,83480,113137
59858,83402,113186
59889,83519,113273
59908,83959,113458
59939,85110,114033
59958,86110,114413
59989,87271,114731
60008,87302,114511
60039,86852,114414
60058,88894,116853
60089,92230,114332
60108,90952,122158
60139,92082,114140
60158,86667,110520
60189,89468,114109
60208,90671,117420
60239,85419,108306
60258,76956,109820
60289,84048,112859
60308,90651,114635
60339,92962,120687
60358,88839,115961
60389,93825,118645
60408,96890,119801
60439,95355,117794
60458,93923,116720
60489,88833,115414
60510,87218,116589
60539,86002,115922
60560,85785,116040
60589,86574,116992
60610,87654,117625
60639,88544,118258
60660,88902,118537
60689,89436,118957
60710,89845,119239
60739,90069,119325
60760,90144,119354
60789,90250,119395
60810,90217,119339
60839,90141,119286
60860,90053,119279
60889,90028,119285
60910,90032,119319
60940,90066,119328
60959,89874,119189
60990,89591,119005
61009,89484,118980
61040,89424,118934
61059,89397,118930
61090,89359,118932
61109,89414,118987
61140,89472,119032
61159,89490,119018
61190,89468,119058
61209,89546,119115
61240,89634,119169
61259,89619,119139
61290,89540,119111
61309,89515,119052
61340,89284,118880
61359,89209,118847
61390,89193,118859
61409,89250,118862
61440,89195,118815
61459,89173,118771
61490,89106,118763
61509,89151,118781
61540,89254,118916
61559,89385,118959
61590,89384,119001
61609,89501,119079
61640,89580,119121
61661,89608,119177
61690,89738,119256
61711,89793,119290
61740,89882,119378
61761,89957,119433
61790,90061,119467
61811,90046,119457
61840,90012,119384
61861,89873,119297
61890,89808,119286
61911,89796,119317
61940,89899,119397
61961,89953,119462
61990,90106,119549
62011,90138,119574
62040,90186,119553
62061,90120,119504
62090,90056,119428
62111,89962,119321
62140,89589,118988
62161,89361,118834
62190,89003,118506
62211,88589,118174
62240,87693,117403
62261,87062,117105
62291,86401,116561
62310,85720,116176
62341,84659,115403
62360,83982,115032
62391,83118,114445
62410,82507,114055
62441,81922,113848
62460,81923,113820
62491,81826,113814
62510,81912,113860
62541,82079,114035
62560,82383,114191
62591,82675,114349
62610,82929,114510
62641,83283,114855
62660,83810,115304
62691,84618,115618
62710,84412,115397
62741,84866,116275
62760,85859,117067
62791,87217,118047
62810,87870,118224
62841,87433,117622
62862,87235,118046
62891,88780,118982
62912,89039,118728
62941,87496,117522
62962,87282,117876
62991,88320,118533
63012,88522,118497
63041,88406,118415
63062,88335,118429
63091,88487,118579
63112,88616,118684
63141,88775,118730
63162,88700,118627
63191,88493,118428
63212,88326,118381
63241,88304,118307
63262,88203,118260
63291,88254,118319
63312,88285,118324
63341,88282,118250
63362,88079,118059
63391,87650,117806
63412,87508,117729
63441,87088,117272
63462,86593,116891
63492,85848,116453
63511,85439,116192
63542,85003,115863
63561,84485,115438
63592,83752,115032
63611,83474,114889
63642,83220,114737
63661,83072,114638
63692,82789,114460
63711,82704,114425
63742,82576,114361
63761,82553,114361
63792,82517,114410
63811,82670,114573
63842,83008,114803
63861,83246,114978
63892,83660,115412
63911,84254,116058
63942,85728,117287
63961,86837,117906
63992,87608,118047
64011,87441,117848
64042,87604,118324
64061,88259,118626
64092,87901,117989
64111,87520,117990
64142,87974,118450
64161,88288,118592
64192,88403,118658
64213,88458,118733
64242,88630,118880
64263,88784,118985
64292,88995,119117
64313,89026,119111
64342,89015,119056
64363,88956,119012
64392,88845,118919
64413,88752,118870
64442,88750,118863
64463,88671,118771
64492,88603,118731
64513,88589,118884
64542,88976,119046
64563,89056,119168
64592,89261,119261
64613,89308,119230
64642,89164,119096
64663,89008,118949
64692,88652,118657
64713,88477,118573
64742,88433,118580
64763,88444,118652
64792,88609,118808
64813,88722,118928
64843,88855,118970
64862,88781,118913
64893,88532,118558
64912,87908,117925
64943,86777,117247
64962,86681,117472
64993,87301,117942
65012,87568,118025
65043,87568,118033
65062,87692,118138
65093,87750,118114
65112,87678,118002
65143,87562,118106
65162,87778,118229
65193,87997,118361
65212,87888,118222
65243,87676,118007
65262,87545,117881
65293,82455,113408
65312,80574,112992
65343,80549,113450
65362,81306,114229
65393,83133,113758
65412,83533,114621
65443,92583,121733
65464,93434,111113
65493,90013,115441
65514,87983,111883
65543,84526,111815
65564,84641,112659
65593,90699,117917
65614,94142,116150
65643,81086,104127
65664,74271,106870
65693,73408,106488
65714,73441,107494
65743,74808,107253
65764,74017,106701
65793,72692,107564
65814,73151,109093
65843,76652,111349
65864,77399,107426
65893,76675,109977
65914,83113,110636
65943,81951,110429
65964,79956,107926
65994,81560,114112
66013,88602,115301
66044,92356,116067
66063,92620,116066
66094,93980,117557
66113,97357,119881
66144,98558,120107
66163,97434,119737
66194,97689,120328
66213,98882,120996
66244,99201,119796
66263,98596,119119
66294,97994,118640
66313,97362,118239
66344,96732,117670
66363,97709,119208
66394,99122,120209
66413,99748,119140
66444,96282,117167
66463,94683,117079
66494,93982,116796
66513,94084,116657
66544,93815,116869
66563,93645,117082
66594,93430,117430
66615,93375,117678
66644,93293,117857
66665,93241,117950
66694,93206,117837
66715,93601,117046
66744,94348,118122
66765,93777,119450
66794,98865,119476
66815,89403,121139
66844,93698,120058
66865,94128,119763
66894,91589,117949
66915,89779,117370
66944,88468,116654
66965,87184,115591
66994,85760,114779
67015,85321,114381
67044,84705,113415
67065,83741,111945
67094,82921,110239
67115,82890,109953
67145,82636,110006
67164,82533,109783
67195,82765,109983
67214,83065,110332
67245,83390,110852
67264,83259,111005
67295,82939,110959
67314,82765,110906
67345,82537,110763
67364,82496,110601
67395,82286,110293
67414,82268,111034
67445,83353,112777
67464,85170,113161
67495,82104,112260
67514,80213,111577
67545,80232,111289
67564,80428,111286
67595,81065,111916
67614,82927,111665
67645,79273,109490
67666,79520,109494
67695,79802,110027
67716,80131,109862
67745,78916,109076
67766,77759,108182
67795,76699,108037
67816,76621,108062
67845,76155,107968
67866,75852,107922
67895,75676,107944
67916,75617,107917
67945,75597,108066
67966,75389,108251
67995,75131,108429
68016,75000,108528
68046,74954,108695
68065,74909,108732
68096,74895,108754
68115,74845,108753
68146,74818,108773
68165,74835,108765
68196,74810,108723
68215,74820,108603
68246,74755,108332
68265,74860,108306
68296,74803,108229
68315,74855,108166
68346,74960,108093
68365,75108,108089
68396,75938,108359
68415,75698,108319
68446,74980,108149
68465,75009,108094
68496,75126,108195
68515,75277,108288
68546,75387,108269
68567,75331,108225
68596,75380,108270
68617,75410,108360
68646,75524,108201
68667,76313,109081
68696,81766,114302
68717,92017,113197
68746,97381,121340
68767,91551,114609
68796,83543,110353
68817,81936,109313
68846,80526,108996
68867,80236,108915
68896,80183,108811
68917,80192,108757
68946,80387,108788
68967,80637,108863
68996,81063,108999
69017,81166,109023
69047,81226,109061
69066,81207,109036
69097,81013,108904
69116,80719,108830
69147,80172,108718
69166,79751,108594
69197,78941,108333
69216,78514,108168
69247,77858,108009
69266,77678,107913
69297,77417,107787
69316,77312,107709
69347,77143,107612
69366,77097,107550
69397,77031,107478
69416,77058,107427
69447,77037,107371
69466,77101,107345
69497,77082,107326
69516,77112,107301
69547,77119,107283
69566,77139,107261
69597,77121,107266
69618,77126,107280
69647,77099,107320
69668,77071,107344
69697,77044,107359
69718,76989,107349
69747,76918,107279
69768,76827,107258
69797,76799,107230
69818,76727,107220
69847,76686,107160
69868,76594,107162
69897,76621,107147
69918,76609,107117
69947,76699,107109
69968,76699,107120
69997,76707,107112
70018,76668,107102
70047,76636,107048
70068,76589,107035
70098,76568,107037
70117,76563,107036
70148,76604,107062
70167,76661,107166
70198,76896,107465
70217,77018,107541
70248,76956,107551
70267,76960,107606
70298,76987,107764
70317,77057,107871
70348,77052,107966
70367,77101,108028
70398,77076,108078
70417,77103,108098
70448,77054,108121
70467,77104,108169
70498,77051,108168
70517,77096,108194
70548,77045,108231
70567,77040,108247
70598,76992,108271
70617,76963,108287
70648,76919,108286
70669,76882,108291
70698,76848,108273
70719,76825,108251
70748,76844,108201
70769,76849,108169
70798,76898,108128
70819,76910,108080
70848,77003,107997
70869,77015,107951
70898,77129,107910
70919,77149,107889
70948,77240,107852
70969,77254,107820
70998,77315,107764
71019,77321,107743
71048,77371,107743
71069,77365,107765
71098,77375,107782
71119,77373,107798
71149,77377,107886
71168,77364,107922
71199,77354,107965
71218,77346,107983
71249,77326,108022
71268,77346,108034
71299,77290,108065
71318,77315,108085
71349,77274,108137
71368,77255,108196
71399,77100,108261
71418,76975,108243
71449,76476,107950
71468,76118,107597
71499,75352,106928
71518,74906,106509
71549,74328,106030
71568,74097,105791
71599,73838,105534
71618,73784,105437
71649,73722,105344
71668,73726,105304
71699,73723,105250
71720,73732,105224
71749,73732,105182
71770,73729,105163
71799,73752,105126
71820,73756,105104
71849,73787,105075
71870,73738,105058
71899,73790,105041
71920,73772,105025
71949,73877,105026
71970,73939,105046
71999,74191,105111
72020,74318,105210
72049,74697,105498
72070,74956,105730
72099,75410,106039
72120,75659,106229
72150,75975,106340
72169,76071,106389
72200,76187,106444
72219,76276,106495
72250,76389,106522
72269,76464,106530
72300,76486,106597
72319,76517,106707
72350,76485,106826
72369,76465,106915
72400,76292,106968
72419,76137,106897
72450,75707,106676
72469,75482,106451
72500,75016,106087
72519,74814,105889
72550,74423,105613
72569,74260,105431
72600,74010,105260
72619,73915,105179
72650,73778,105082
72669,73723,105010
72700,73656,104957
72721,73685,104940
72750,73734,104909
72771,73762,104896
72800,73848,104882
72821,73921,104906
72850,74159,104986
72871,74247,105047
72900,74457,105147
72921,74562,105270
72950,74925,105583
72971,75153,105703
73000,75375,105817
73021,75406,105849
73050,75538,105936
73071,75648,105966
73100,75788,106025
73121,75819,106062
73151,75904,106157
73170,75942,106176
73201,76022,106239
73220,76028,106296
73251,76015,106404
73270,76010,106482
73301,75867,106523
73320,75676,106391
73351,75179,106039
73370,74915,105785
73401,74435,105466
73420,74204,105274
73451,73806,105029
73470,73710,104913
73501,73511,104771
73520,73484,104666
73551,73344,104568
73570,73359,104522
73601,73315,104455
73620,73357,104442
73651,73359,104408
73670,73406,104400
73701,73454,104396
73722,73523,104400
73751,73679,104461
73772,73823,104538
73801,74142,104671
73822,74267,104751
73851,74480,104887
73872,74593,105027
73901,74896,105268
73922,75058,105426
73951,75306,105524
73972,75345,105586
74001,75512,105554
74022,75544,105567
74051,75690,105609
74072,75756,105631
74101,75895,105725
74122,75973,105766
74151,76035,105812
74172,76068,105824
74202,76105,105881
74221,76111,105899
74252,76154,105927
74271,76186,105926
74302,76185,105961
74321,76230,105975
74352,76233,105991
74371,76269,105990
74402,76237,106021
74421,76263,106027
74452,76254,106030
74471,76316,106030
74502,76288,106042
74521,76347,106051
74552,76333,106068
74571,76390,106071
74602,76360,106098
74621,76393,106102
74652,76402,106131
74671,76404,106124
74702,76393,106133
74723,76401,106140
74752,76423,106150
74773,76413,106145
74802,76434,106149
74823,76429,106154
74852,76464,106164
74873,76427,106168
74902,76475,106176
74923,76446,106187
74952,76467,106207
74973,76461,106217
75002,76500,106222
75023,76469,106225
75052,76510,106245
75073,76493,106253
75102,76502,106297
75123,76485,106318
75152,76494,106362
75173,76493,106375
75203,76488,106417
75222,76479,106425
75253,76466,106430
75272,76482,106429
75303,76460,106450
75322,76489,106453
75353,76464,106463
75372,76511,106477
75403,76457,106507
75422,76474,106526
75453,76444,106532
75472,76466,106545
75503,76451,106561
75522,76515,106590
75553,76482,106607
75572,76512,106637
75603,76469,106659
75622,76513,106706
75653,76455,106753
75672,76471,106761
75703,76441,106770
75724,76408,106783
75753,76384,106831
75774,76364,106853
75803,76339,106871
75824,76289,106873
75853,76268,106868
75874,76230,106857
75903,76250,106846
75924,76230,106852
75953,76251,106843
75974,76229,106767
76003,76280,106792
76024,76232,106805
76053,76248,106805
76074,76269,106653
76103,76347,106775
76124,76372,106909
76153,76372,106729
76174,76317,106571
76204,76334,106657
76223,76332,106693
76254,76342,106753
76273,76332,106769
76304,76287,106719
76323,76329,106701
76354,76306,106671
76373,76346,106679
76404,76298,106698
76423,76318,106696
76454,76271,106694
76473,76347,106715
76504,76302,106740
76523,76339,106758
76554,76306,106829
76573,76304,106865
76604,76269,106867
76623,76263,106854
76654,76222,106852
76675,76223,106847
76704,76161,106848
76725,76100,106805
76754,76043,106774
76775,76039,106725
76804,76001,106747
76825,75938,106730
76854,76005,106683
76875,75994,106702
76904,75989,106725
76925,75881,106710
76954,75987,106671
76975,75946,106667
77004,75957,106633
77025,75963,106630
77054,75912,106606
77075,75845,106624
77104,75908,106478
77125,75906,106376
77155,76148,106219
77174,76425,106050
77205,76394,106098
77224,76186,105944
77255,76032,105969
77274,76106,106022
77305,76195,106033
77324,76310,105933
77355,76354,105852
77374,76435,105859
77405,76437,105926
77424,76493,105935
77455,76469,105927
77474,76540,105931
77505,76538,105940
77524,76593,105943
77555,76643,105963
77574,76695,105947
77605,76719,105941
77626,76747,105938
77655,76803,105891
77676,76821,105880
77705,76920,105816
77726,76950,105791
77755,77123,105696
77776,77180,105706
77805,77274,105762
77826,77323,105767
77855,77432,105739
77876,77483,105713
77905,77695,105647
77926,77941,105637
77955,78263,105782
77976,78485,105951
78005,78898,106349
78026,79345,106975
78056,80898,108481
78075,81388,108885
78106,82274,109489
78125,82532,109615
78156,82904,109706
78175,83096,109751
78206,83333,109882
78225,83632,110014
78256,84098,110274
78275,84316,110421
78306,84653,110647
78325,84959,110764
78356,85045,110775
78375,85052,110754
78406,85017,110763
78425,85041,110648
78456,84782,110785
78475,85874,111743
78506,86938,112076
78525,87082,112020
78556,87083,112054
78577,86768,111760
78606,87464,112746
78627,87695,112664
78656,86766,111615
78677,86205,111302
78706,85894,111015
78727,85739,111043
78756,85894,111218
78777,86181,111760
78806,87210,112430
78827,87748,112861
78856,87914,112752
78877,87818,112691
78906,88071,112985
78927,88420,113207
78956,88876,113012
78977,87710,111929
79006,85977,110562
79027,85087,110076
79057,84155,109846
79076,84800,115969
79107,91617,115071
79126,94657,118373
79157,97910,117790
79176,94062,117823
79207,89376,118589
79226,95403,122577
79257,102273,125074
79276,100864,124117
79307,100053,124888
79326,100728,125519
79357,102037,126651
79376,101800,125952
79407,94789,121232
79426,97218,121444
79457,97040,119229
79476,87645,113191
79507,88751,113114
79526,88795,112508
79557,87222,111736
79576,86304,111249
79607,84531,110451
79628,83812,110388
79657,83241,110327
79678,82979,110300
79707,82766,110372
79728,82628,110390
79757,82533,110389
79778,82470,110371
79807,82446,110337
79828,82352,110423
79857,82260,110657
79878,82129,110816
79907,82011,110909
79928,82203,110924
79957,82101,110921
79978,82033,110940
80007,81983,110906
80028,81943,110865
80058,81926,110807
80077,81925,110692
80108,81980,110518
80127,82017,110357
80158,82032,110134
80177,82140,110010
80208,82197,110072
80227,82249,110132
80258,82134,110228
80277,82112,110237
80308,82002,110203
80327,81974,110231
80358,81737,110182
80377,81078,109995
80408,79880,109510
80427,79422,109289
80458,79050,108993
80479,78965,108880
80508,78962,108738
80529,78921,108653
80558,78926,108470
80579,78888,108437
80608,78908,108300
80629,78804,108241
80658,78432,107921
80679,78051,107642
80708,77854,107685
80729,77425,107748
80758,77956,108540
80779,78429,108700
80808,78704,108795
80829,78272,108718
80859,77659,108781
80878,77351,108900
80909,81936,115263
80928,87173,118101
80959,79518,112957
80978,80100,114076
81009,78564,115300
81028,78254,115483
81059,77946,115617
81078,77715,115531
81109,77448,115376
81128,77473,115455
81159,77457,115016
81178,77477,114646
81209,77337,113799
81228,76875,113475
81259,76545,113356
81278,76434,113144
81309,76764,111575
81330,77783,111111
81359,82357,113011
81380,83744,112731
81409,83327,112020
81430,82857,111720
81459,82172,111320
81480,81852,111192
81509,81685,111107
81530,81408,111109
81559,81203,111110
81580,81052,111108
81609,80905,111043
81630,80609,110976
81659,80317,110917
81680,80157,110886
81709,80056,110814
81730,80050,110762
81759,80224,110717
81780,80442,110537
81809,80790,110415
81830,81016,110520
81860,81015,110523
81879,81031,110510
81910,81089,110467
81929,81132,110497
81960,80972,110566
81979,80906,110588
82010,80771,110631
82029,80712,110643
82060,80496,110814
82079,80190,111017
82110,79639,111135
82129,79400,111091
82160,79071,110956
82179,78976,110853
82210,78851,110683
82229,78854,110545
82260,78769,110331
82279,78790,110225
82310,78894,110029
82329,78986,109941
82360,79185,109791
82381,79474,109517
82410,79596,109699
82431,79633,109801
82460,79673,109764
82481,79677,109710
82510,79728,109642
82531,79713,109629
82560,79709,109611
82581,79650,109548
82610,79663,109486
82631,79630,109499
82660,79597,109507
82681,79537,109527
82710,79512,109556
82731,79464,109514
82760,79478,109408
82781,79481,109309
82810,79530,109193
82831,79574,109121
82861,79630,109108
82880,79604,109150
82911,79619,109142
82930,79624,109171
82961,79629,109329
82980,79600,109456
83011,79467,109568
83030,79444,109982
83061,79128,110530
83080,78960,110514
83111,78670,110329
83130,78541,110132
83161,78282,110014
83180,78240,109980
83211,78123,110001
83230,78055,109955
83261,77809,109837
83280,77733,109768
83311,77629,109757
83330,77589,109768
83361,77510,109689
83382,77482,109703
83411,77458,109729
83432,77446,109704
83461,77415,109681
83482,77374,109656
83511,77357,109635
83532,77316,109614
83561,77314,109584
83582,77274,109556
83611,77280,109531
83632,77247,109516
83661,77242,109427
83682,77166,109373
83711,77123,109276
83732,77076,109250
83761,77084,109237
83782,77048,109218
83811,77026,109201
83832,77016,109164
83862,76992,109145
83881,76950,109042
83912,76905,109044
83931,76923,109057
83962,76886,109007
83981,76901,108982
84012,76829,108943
84031,76865,108903
84062,76709,108573
84081,76620,108347
84112,76739,108320
84131,76851,108357
84162,76912,108354
84181,76984,108363
84212,77003,108374
84231,77047,108403
84262,77056,108419
84281,77083,108442
84312,77098,108458
84331,77103,108457
84362,77087,108465
84383,77094,108463
84412,77106,108485
84433,77095,108506
84462,77118,108526
84483,77100,108545
84512,77132,108562
84533,77093,108587
84562,77143,108625
84583,77114,108639
84612,77142,108644
84633,77116,108643
84662,77156,108603
84683,77135,108577
84712,77172,108549
84733,77148,108525
84762,77169,108541
84783,77158,108524
84813,77176,108554
84832,77164,108550
84863,77201,108566
84882,77207,108580
84913,77214,108590
84932,77235,108596
84963,77221,108566
84982,77255,108555
85013,77228,108526
85032,77284,108526
85063,77260,108539
85082,77304,108532
85113,77296,108535
85132,77379,108533
85163,77418,108568
85182,77563,108567
85213,77590,108558
85232,77646,108577
85263,77622,108612
85282,77651,108603
85313,77647,108579
85334,77640,108575
85363,77654,108571
85384,77655,108554
85413,77708,108522
85434,77710,108520
85463,77771,108527
85484,77736,108515
85513,77779,108530
85534,77767,108525
85563,77810,108552
85584,77792,108546
85613,77835,108515
85634,77824,108519
85663,77863,108519
85684,77850,108540
85713,77872,108546
85734,77879,108550
85764,77880,108594
85783,77887,108600
85814,77898,108604
85833,77911,108591
85864,77905,108560
85883,77913,108546
85914,77908,108530
85933,77954,108537
85964,77917,108541
85983,77980,108542
86014,77918,108552
86033,77943,108557
86064,77924,108555
86083,77984,108552
86114,77958,108544
86133,78011,108530
86164,77985,108552
86183,78050,108546
86214,78035,108566
86233,78053,108575
86264,78044,108574
86285,78031,108566
86314,78034,108559
86335,78047,108539
86364,78086,108493
86385,78088,108454
86414,78130,108436
86435,78110,108435
86464,78165,108428
86485,78127,108401
86514,78157,108400
86535,78132,108400
86564,78175,108391
86585,78158,108391
86614,78193,108383
86635,78171,108390
86664,78190,108401
86685,78180,108424
86714,78197,108430
86735,78186,108418
86765,78193,108453
86784,78177,108444
86815,78180,108436
86834,78200,108439
86865,78190,108431
86884,78231,108420
86915,78210,108402
86934,78250,108403
86965,78226,108420
86984,78257,108416
87015,78229,108394
87034,78271,108375
87065,78251,108372
87084,78312,108376
87115,78299,108366
87134,78347,108354
87165,78330,108369
87184,78359,108373
87215,78363,108390
87236,78335,108384
87265,78342,108377
87286,78339,108368
87315,78364,108363
87336,78347,108366
87365,78373,108372
87386,78340,108366
87415,78366,108364
87436,78338,108350
87465,78373,108340
87486,78347,108338
87515,78390,108324
87536,78375,108309
87565,78387,108339
87586,78387,108364
87615,78390,108421
87636,78366,108548
87666,78313,108715
87685,78241,108796
87716,78193,108680
87735,78182,108667
87766,78156,108642
87785,78186,108639
87816,78158,108641
87835,78186,108616
87866,78156,108638
87885,78162,108687
87916,78084,108584
87935,78143,108621
87966,78129,108541
87985,78194,108483
88016,78197,108474
88035,78227,108481
88066,78203,108459
88085,78253,108404
88116,78291,108300
88135,78358,108298
88166,78370,108380
88187,78393,108375
88216,78422,108296
88237,78443,108276
88266,78518,108260
88287,78538,108251
88316,78631,108266
88337,78625,108284
88366,78678,108292
88387,78685,108306
88416,78728,108331
88437,78729,108342
88466,78772,108344
88487,78762,108348
88516,78818,108343
88537,78812,108352
88566,78830,108383
88587,78833,108390
88617,78859,108447
88636,78847,108432
88667,78876,108394
88686,78856,108392
88717,78846,108370
88736,78869,108357
88767,78838,108342
88786,78890,108315
88817,78859,108278
88836,78910,108231
88867,78833,108018
88886,78875,108007
88917,78850,108019
88936,78954,108039
88967,79052,108182
88986,79292,108209
89017,79301,108236
89036,79357,108255
89067,79346,108267
89086,79387,108277
89117,79382,108297
89138,79367,108290
89167,79365,108291
89188,79381,108299
89217,79388,108291
89238,79382,108296
89267,79397,108288
89288,79380,108288
89317,79398,108273
89338,79364,108286
89367,79405,108279
89388,79372,108284
89417,79406,108268
89438,79379,108261
89467,79421,108254
89488,79403,108240
89517,79429,108251
89538,79419,108261
89567,79435,108293
89588,79417,108307
89618,79396,108371
89637,79333,108584
89668,79012,108812
89687,78940,108795
89718,78846,108904
89737,78748,109039
89768,78434,109090
89787,78317,109140
89818,78042,109238
89837,77922,109283
89868,77553,109298
89887,77364,109286
89918,77116,109282
89937,77078,109292
89968,76947,109240
89987,76875,109188
90018,76758,109147
90039,76723,109114
90068,76679,109074
90089,76649,109057
90118,76657,109024
90139,76631,109001
90168,76633,108979
90189,76590,108943
90218,76597,108875
90239,76555,108801
90268,76526,108673
90289,76468,108526
90318,76448,108347
90339,76598,108308
90368,76738,108249
90389,76847,108262
90418,77004,108249
90439,77331,108163
90469,77627,108192
90488,77757,108154
90519,77934,108117
90538,78016,108113
90569,78122,108151
90588,78261,108190
90619,78383,108249
90638,78525,108300
90669,78610,108351
90688,78731,108350
90719,78827,108194
90738,79242,108138
90769,79429,108197
90788,79513,108248
90819,79484,108298
90838,79541,108311
90869,79536,108325
90888,79591,108332
90919,79618,108336
90938,79682,108336
90969,79718,108356
90990,79745,108374
91019,79786,108391
91040,79799,108402
91069,79834,108410
91090,79828,108411
91119,79859,108431
91140,79851,108436
91169,79884,108448
91190,79859,108454
91219,79887,108465
91240,79876,108462
91269,79917,108463
91290,79902,108463
91319,79930,108454
91340,79919,108453
91369,79946,108483
91390,79934,108498
91419,79944,108514
91440,79935,108538
91470,79942,108579
91489,79933,108581
91520,79929,108581
91539,79954,108587
91570,79929,108594
91589,79967,108597
91620,79913,108608
91639,79943,108607
91670,79899,108592
91689,79949,108581
91720,79932,108586
91739,79995,108597
91770,79961,108598
91789,80027,108608
91820,79988,108620
91839,80016,108631
91870,80008,108639
91889,80008,108631
91920,79975,108639
91941,79985,108655
91970,79998,108647
91991,79980,108642
92020,80005,108639
92041,79996,108638
92070,80017,108632
92091,79980,108631
92120,80012,108625
92141,79981,108626
92170,80022,108606
92191,80005,108604
92220,80046,108577
92241,80029,108581
92270,80028,108600
92291,79924,108731
92320,79678,108832
92341,79561,108830
92371,79506,108826
92390,79455,108817
92421,79427,108799
92440,79421,108768
92471,79437,108732
92490,79477,108719
92521,79461,108733
92540,79497,108718
92571,79495,108684
92590,79552,108666
92621,79538,108666
92640,79569,108666
92671,79547,108634
92690,79610,108626
92721,79618,108613
92740,79669,108610
92771,79596,108645
92790,79597,108704
92821,79426,108780
92840,79371,108845
92871,79222,108937
92890,79108,108998
92921,78874,109205
92942,78520,109434
92971,78147,109483
92992,78012,109455
93021,77795,109487
93042,77534,109433
93071,77318,109396
93092,77179,109382
93121,77136,109365
93142,77054,109347
93171,77021,109338
93192,76975,109348
93221,76970,109321
93242,76922,109306
93271,76917,109297
93292,76886,109306
93321,76872,109301
93342,76845,109310
93372,76815,109354
93391,76793,109346
93422,76761,109329
93441,76744,109320
93472,76709,109296
93491,76714,109285
93522,76663,109276
93541,76686,109253
93572,76633,109216
93591,76654,109208
93622,76591,109194
93641,76604,109177
93672,76565,109156
93691,76585,109153
93722,76539,109144
93741,76594,109115
93772,76569,109041
93791,76609,108970
93822,76547,108875
93841,76561,108834
93872,76549,108774
93891,76544,108707
93922,76502,108623
93943,76522,108609
93972,76534,108685
93993,76547,108671
94022,76553,108647
94043,76542,108621
94072,76561,108616
94093,76533,108610
94122,76555,108577
94143,76529,108557
94172,76558,108530
94193,76532,108511
94222,76592,108492
94243,76578,108499
94272,76623,108581
94293,76643,108702
94322,76678,108836
94343,76684,108904
94373,76687,109032
94392,76678,109089
94423,76695,109143
94442,76686,109152
94473,76683,109160
94492,76701,109159
94523,76684,109156
94542,76707,109111
94573,76663,109007
94592,76676,108889
94623,76522,108642
94642,76468,108467
94673,76347,108189
94692,76407,108130
94723,76640,107989
94742,76925,108126
94773,77104,108232
94792,77295,108114
94823,77577,108018
94842,77727,108040
94873,77859,107993
94894,77896,107999
94923,78029,108039
94944,78043,108064
94973,78036,108120
94994,78009,108124
95023,78044,108117
95044,78017,108119
95073,78070,108045
95094,78094,107991
95123,78231,107954
95144,78263,107961
95173,78322,107993
95194,78308,108023
95223,78319,108125
95244,78273,108181
95273,78249,108262
95294,78219,108272
95324,78227,108281
95343,78220,108263
95374,78223,108316
95393,78195,108373
95424,78121,108480
95443,78068,108611
95474,77821,108778
95493,77691,108882
95524,77367,108991
95543,77139,108971
95574,76802,108944
95593,76691,108885
95624,76546,108775
95643,76491,108698
95674,76351,108566
95693,76315,108463
95724,76126,108235
95743,76066,108111
95774,75873,107931
95793,75789,107817
95824,75644,107672
95845,75561,107567
95874,75477,107455
95895,75439,107392
95924,75376,107341
95945,75347,107302
95974,75341,107270
95995,75308,107260
96024,75333,107261
96045,75311,107277
96074,75376,107317
96095,75383,107340
96124,75463,107343
96145,75468,107337
96174,75518,107305
96195,75527,107319
96224,75579,107304
96245,75599,107314
96275,75698,107393
96294,75744,107431
96325,75917,107435
96344,76091,107507
96375,76252,107510
96394,76446,107580
96425,76742,107650
96444,77032,107632
96475,77080,107656
96494,77140,107653
96525,77132,107695
96544,77139,107697
96575,77100,107619
96594,77216,107462
96625,77385,107397
96644,77465,107379
96675,77492,107406
96694,77588,107456
96725,77570,107640
96744,77589,107665
96775,77579,107690
96796,77570,107704
96825,77568,107716
96846,77580,107727
96875,77606,107703
96896,77613,107694
96925,77681,107623
96946,77697,107569
96975,77801,107485
96996,77925,107497
97025,78178,107485
97046,78253,107502
97075,78488,107554
97096,78716,107688
97125,79620,108045
97146,79736,107658
97175,79924,107767
97196,80042,107840
97225,80284,107896
97246,80399,107954
97276,80588,108088
97295,80768,108189
97326,81198,108583
97345,81451,108743
97376,82021,109124
97395,82578,109597
97426,83592,110676
97445,84483,111413
97476,86345,113418
97495,87873,114707
97526,88593,114716
97545,88722,114675
97576,88914,114567
97595,88999,114297
97626,88560,113954
97645,88339,113799
97676,87915,113529
97695,87670,113347
97726,87211,113018
97745,86918,112791
97776,86560,112620
97797,86497,112536
97826,86314,112445
97847,86294,112480
97876,86524,112630
97897,86637,112668
97926,86570,112544
97947,86405,112414
97976,86160,112098
97997,85444,111390
98026,84230,110643
98047,83829,110557
98076,83722,110332
98097,83364,110076
98126,82755,109648
98147,82201,109316
98176,81490,109047
98197,81167,108896
98227,80824,108788
98246,80494,108714
98277,80038,108776
98296,79760,108841
98327,79430,108910
98346,79284,108922
98377,79039,109016
98396,78932,109099
98427,78685,109234
98446,78580,109279
98477,78395,109335
98496,78355,109380
98527,78235,109406
98546,78239,109417
98577,78169,109420
98596,78175,109411
98627,78099,109403
98646,78093,109399
98677,78042,109366
98696,78021,109355
98727,77976,109309
98748,77934,109269
98777,77924,109207
98798,77907,109171
98827,77878,109116
98848,77854,109068
98877,77841,108928
98898,77741,108709
98927,77554,108188
98948,77347,107704
98977,77578,107359
98998,78044,107278
99027,78408,107052
99048,78503,106975
99077,78757,106914
99098,78865,107057
99127,78980,107117
99148,79029,107044
99178,79145,107000
99197,79143,106785
99228,79188,106933
99247,79221,106979
99278,79444,107082
99297,79664,107095
99328,79726,107115
99347,79766,107179
99378,79697,107240
99397,79673,107291
99428,79523,107526
99447,79351,107887
99478,78822,108467
99497,78579,108581
99528,78327,108740
99547,78213,108826
99578,78042,108979
99597,78015,109019
99628,77938,109024
99647,77935,109002
99678,77852,108974
99699,77839,108952
99728,77806,108909
99749,77763,108808
99778,77721,108607
99799,77630,108374
99828,77468,107887
99849,77337,107716
99878,77568,107585
99899,77584,107454
99928,77886,107252
99949,78104,107180
99978,78359,107092
99999,78361,107251
100028,78441,107006
100049,78515,107017
100078,78680,107078
100099,78722,107085
100129,78753,107118
100148,78759,107019
100179,78836,106978
100198,78903,106973
100229,78961,106864
100248,79026,106573
100279,79062,106622
100298,79143,106628
100329,79122,106715
100348,79120,106789
100379,79021,106917
100398,78970,107057
100429,78884,107385
100448,78886,107479
100479,78859,107559
100498,78900,107337
100529,78955,106890
100548,79047,106671
100579,79168,106642
100598,79357,106615
100629,79972,106872
100650,80002,107160
100679,79783,107672
100700,79539,107956
100729,78998,108643
100750,78719,108746
100779,78439,108453
100800,78352,108593
100829,78411,107761
100850,78576,107413
100879,79229,108231
100900,80628,111464
100929,83901,116503
100950,85997,118422
100979,86540,120747
101000,87381,121354
101029,84423,117580
101050,82981,116798
101080,82067,116139
101099,81754,115949
101130,81651,115912
101149,81738,115989
101180,82240,116296
101199,82699,116539
101230,83436,117172
101249,84161,117761
101280,85163,118710
101299,85966,119189
101330,86716,119627
101349,87004,119725
101380,87174,119873
101399,87294,119898
101430,87265,119891
101449,87295,119903
101480,87304,119935
101499,87371,120104
101530,87767,120349
101551,88065,120402
101580,87892,119238
101601,86589,118543
101630,84033,116483
101651,83718,114483
101680,82621,113947
101701,82059,113702
101730,82125,113747
101751,81751,113529
101780,81297,113165
101801,80726,112880
101830,80110,112599
101851,79740,112486
101880,79693,112506
101901,79977,112642
101930,80406,112877
101951,80491,112886
101981,80385,112881
102000,80315,112900
102031,80512,112934
102050,80701,113172
102081,81381,113754
102100,82018,114184
102131,82658,114568
102150,82899,114627
102181,82823,114543
102200,82704,114424
102231,82296,114194
102250,82153,114073
102281,81896,113905
102300,81829,113859
102331,81788,113898
102350,81954,114026
102381,81901,113852
102400,81868,113998
102431,82248,113975
102450,81703,113679
102481,80168,112606
102502,78912,112139
102531,77811,111715
102552,77146,111497
102581,76451,111083
102602,76191,110526
102631,75628,110348
102652,75258,110308
102681,75507,110341
102702,75906,110272
102731,76079,110328
102752,76343,110355
102781,76442,110339
102802,76592,110392
102831,76747,110358
102852,76780,110407
102881,76890,110431
102902,77089,110536
102932,77775,110788
102951,78321,110963
102982,79444,111496
103001,80346,112239
103032,81729,112867
103051,82153,113225
103082,82561,112877
103101,81524,112140
103132,80902,112061
103151,81129,111961
103182,82213,112513
103201,85783,110334
103232,98914,103799
103251,98700,85199
103282,78525,72300
103301,73895,70133
103332,66247,58416
103351,55704,50225
103382,43034,38809
103403,33105,29339
103432,20082,19852
103453,16277,16896
103482,13395,14770
103503,12279,13298
103532,9034,8993
103553,6548,6764
103582,4512,4851
103603,3823,4263
103632,3611,4217
103653,3825,4752
103682,5210,7208
103703,7498,11175
103732,16720,26595
103753,33827,53314
103782,99447,116927
103803,96718,117517
103833,91218,114534
103852,88453,113280
103883,86761,113038
103902,87185,113719
103933,88816,114855
103952,89912,115528
103983,91464,116353
104002,92109,116558
104033,91982,116245
104052,91226,115659
104083,89159,114371
104102,87878,113712
104133,86612,113259
104152,86500,113330
104183,86957,113754
104202,87618,114144
104233,88487,114664
104252,88972,114830
104283,89021,114729
104302,88761,114516
104333,88040,114052
104354,87574,113829
104383,87371,113862
104404,87525,113974
104433,87766,114082
104454,88026,114299
104483,88766,114787
104504,89088,114784
104533,88420,114000
104554,87288,113180
104583,85811,112658
104604,85289,112252
104633,83350,110784
104654,81588,109718
104683,79423,108892
104704,79187,108855
104733,79411,108851
104754,79440,108818
104784,79595,108993
104803,80147,109162
104834,80557,109241
104853,80495,109098
104884,79468,108490
104903,78643,107972
104934,77623,107487
104953,77572,107549
104984,78136,107879
105003,78646,108089
105034,79218,108388
105053,79497,108459
105084,79533,108506
105103,79637,108590
105134,80090,108986
105153,80646,109388
105184,82411,110864
105203,83776,111633
105234,84987,112583
105253,85304,111743
105284,84325,110799
105305,83458,110363
105334,82908,111050
105355,83713,111474
105384,83661,110947
105405,82017,109593
105434,83482,108908
105455,83757,113501
105484,95098,120292
105505,90818,120774
105534,91126,120496
105555,90398,119822
105584,89515,119565
105605,89101,118171
105634,88030,116386
105655,87135,115467
105684,86693,115982
105705,87779,117249
105734,91261,120599
105755,96421,123532
105785,102705,94870
105804,96252,87611
105835,62716,47831
105854,44742,35956
105885,24442,18153
105904,12020,9673
105935,5689,7991
105954,7384,11921
105985,17805,22629
106004,22939,24317
106035,23331,22685
106054,23755,23466
106085,26916,27145
106104,29404,28843
106135,29050,27685
106154,27427,23472
106185,20773,17805
106204,19510,17191
106235,15084,13827
106254,13270,14034
106285,14815,18549
106306,20291,23046
106335,27444,28330
106356,32021,31868
106385,24357,23451
106406,15623,20502
106435,7446,7498
106456,1695,3723
106485,1268,4074
106506,1336,4440
106535,1666,5144
106556,1851,5561
106585,2398,6772
106606,2990,7673
106635,3421,8274
106656,3939,9254
106685,4193,9127
106706,4073,8831
106735,3886,8707
106756,3830,8514
106786,3403,7485
106805,2684,6300
106836,1799,4827
106855,1449,4189
106886,1529,4782
106905,1681,4859
106936,1703,5038
106955,1812,5157
106986,1795,5393
107005,1845,5610
107036,2289,5972
107055,5892,10970
107086,52104,46168
107105,55644,46400
107136,49357,41050
107155,51093,42717
107186,45632,32000
107205,33924,20806
107236,22089,16184
107255,19133,15904
107286,17885,15930
107307,16479,14710
107336,22563,20774
107357,33761,30027
107386,53951,46271
107407,62807,56573
107436,67326,55261
107457,65518,51746
107486,61368,47510
107507,60963,48243
107536,61413,50603
107557,63108,52025
107586,63484,51819
107607,62694,50057
107636,58060,43994
107657,54457,36720
107686,53035,37007
107707,57697,37126
107737,47750,28456
107756,34633,12934
107787,7143,3175
107806,3475,1778
107837,1738,1102
107856,1445,994
107887,1223,891
107906,1229,858
107937,1118,813
107956,1142,800
107987,1074,780
108006,1107,730
108037,1042,739
108056,1351,973
108087,1471,838
108106,1256,641
108137,963,568
108156,934,547
108187,887,575
108206,926,583
108237,914,595
108258,927,591
108287,996,595
108308,993,592
108337,957,553
108358,901,553
108387,908,548
108408,909,569
108437,908,556
108458,855,550
108487,872,554
108508,826,558
108537,879,578
108558,885,614
108587,975,687
108608,994,673
108637,1044,738
108658,1112,812
108688,1328,913
108707,1439,938
108738,1447,872
108757,1300,719
108788,986,648
108807,928,624
108838,941,683
108857,1133,767
108888,1209,772
108907,1724,1187
108938,1909,897
108957,1348,758
108988,1127,759
109007,1273,923
109038,1732,1095
109057,1507,922
109088,2144,1336
109107,2145,1275
109138,2082,1298
109157,2299,1388
109188,2431,1339
109209,2276,1200
109238,1830,918
109259,1603,814
109288,1497,749
109309,1478,765
109338,1662,826
109359,1711,865
109388,2001,1006
109409,2217,1100
109438,2492,1169
109459,2455,1163
109488,2540,1197
109509,2571,1181
109538,2604,1168
109559,2588,1131
109588,2484,1091
109609,2444,1101
109639,2489,1178
109658,2536,1211
109689,2608,1215
109708,2594,1207
109739,2569,1251
109758,2815,1478
109789,4151,2527
109808,5466,2881
109839,3515,2059
109858,2833,2250
109889,1524,805
109908,672,554
109939,623,632
109958,701,658
109989,693,650
110008,759,634
110039,730,610
110058,778,615
110089,787,667
110108,834,693
110139,837,732
110160,860,725
110189,899,788
110210,944,847
110239,1010,887
110260,967,897
110289,1014,1013
110310,1097,1078
110339,1200,1081
110360,1182,1093
110389,1244,1110
110410,1222,1104
110439,1279,1128
110460,1294,1171
110489,1360,1235
110510,1379,1305
110539,1416,1347
110560,1460,1482
110590,1626,1746
110609,1748,1945
110640,2020,2341
110659,2295,2733
110690,2877,3739
110709,3606,4809
110740,5042,6994
110759,6443,8976
110790,9514,13852
110809,13487,19492
110840,21604,28213
110859,25924,30259
110890,25907,28645
110909,24835,27914
110940,25165,28546
110959,26239,30835
110990,33626,45900
111009,51089,75520
111040,111963,115585
111061,85380,113932
111090,82163,112445
111111,82061,112427
111140,82597,112871
111161,83208,112489
111190,81707,113770
111211,85973,116145
111240,89085,115167
111261,89297,115934
111290,88471,118047
111311,91080,121628
111340,96536,121453
111361,93473,119934
111390,91997,118041
111411,90868,117363
111440,89399,116606
111461,88777,116307
111491,88698,116615
111510,89628,117096
111541,91607,117689
111560,93253,118664
111591,93523,118728
111610,93375,118545
111641,92736,118068
111660,92225,117666
111691,91270,116978
111710,90558,116319
111741,88922,115267
111760,88198,115088
111791,87478,114669
111810,87393,114652
111841,86850,114023
111860,86226,113701
111891,85885,113692
111910,85967,113809
111941,86520,114491
111962,87545,115278
111991,89185,116212
112012,89919,116570
112041,90397,116638
112062,90174,116447
112091,89813,116212
112112,89672,116200
112141,89895,116437
112162,90173,116707
112191,90771,117026
112212,90900,117025
112241,90642,116721
112262,90338,116569
112291,90181,116452
112312,90124,116469
112341,90375,116734
112362,90654,116951
112391,91012,117137
112412,91088,117168
112442,91038,117115
112461,90864,116949
112492,90377,116592
112511,90049,116362
112542,89583,116127
112561,89440,116040
112592,89236,115856
112611,88864,115382
112642,87816,115031
112661,87966,115114
112692,87617,114634
112711,86888,113739
112742,84774,110607
112761,79109,109710
112792,85305,112611
112811,77749,109849
112842,74444,109131
112861,74172,109041
112892,74058,108897
112913,74368,108901
112942,74861,109145
112963,75328,109470
112992,75828,109532
113013,75896,109455
113042,75793,109357
113063,75813,109363
113092,75417,108962
113113,74924,108720
113142,74519,108551
113163,74402,108547
113192,74569,108695
113213,74727,108854
113242,74977,108904
113263,74945,108886
113292,74977,108948
113313,75122,109099
113342,75466,109377
113363,75979,109714
113393,76759,110120
113412,77302,110465
113443,78724,111188
113462,81030,112120
113493,83809,113268
113512,85048,113680
113543,86483,114346
113562,89486,114693
113593,90205,114592
113612,90144,114580
113643,89546,114702
113662,89074,114725
113693,88529,114544
113712,87961,114076
113743,86541,113716
113762,86472,113780
113793,86071,113687
113812,85433,113491
113843,83570,112708
113864,82415,112169
113893,80241,110963
113914,77706,108905
113943,76281,108894
113964,77621,108633
113993,78095,108456
114014,78258,108589
114043,78575,109075
114064,79062,109551
114093,78279,108820
114114,76589,107812
114143,74782,107068
114164,73860,106766
114193,73444,106780
114214,73254,106753
114243,73119,106635
114264,73450,106618
114293,74386,106130
114314,75712,105297
114344,75216,104719
114363,75704,104765
114394,76280,105249
114413,76643,104670
114444,75257,104168
114463,74683,103467
114494,73373,102602
114513,72572,101980
114544,71229,101207
114563,70390,100883
114594,69435,100479
114613,69070,100459
114644,68836,100491
114663,68529,100302
114694,68047,100239
114713,67916,100312
114744,67760,100365
114763,67722,100369
114794,67778,100453
114813,68020,100526
114844,68114,100456
114865,67812,100099
114894,67190,99932
114915,67064,99957
114944,67120,99980
114965,67082,99969
114994,66941,99933
115015,66839,99932
115044,66851,99941
115065,66789,99949
115094,66778,99932
115115,66708,99897
115144,66741,99901
115165,66773,99896
115194,66850,99924
115215,66837,99942
115245,66822,99965
115264,66780,99930
115295,66590,99885
115314,66491,99897
115345,66295,99939
115364,66131,99840
115395,65779,99696
115414,65595,99732
115445,65628,99713
115464,65547,99565
115495,65158,99244
115514,64925,99012
115545,64525,98701
115564,64335,98501
115595,63973,98323
115614,63884,98485
115645,63709,98331
115664,63715,98269
115695,63645,98205
115714,63618,98143
115745,63618,98095
115766,63607,98080
115795,63593,98076
115816,63561,98076
115845,63563,98019
115866,63544,97989
115895,63607,97919
115916,63565,97857
115945,63666,97741
115966,63709,97625
115995,63860,97308
116016,64537,98145
116045,65723,99052
116066,64442,98158
116095,62489,97268
116116,61927,97246
116145,61713,97190
116166,61467,97194
116196,61251,97234
116215,61211,97207
116246,61139,97200
116265,61031,97253
116296,60885,97300
116315,60919,97281
116346,60809,97108
116365,60742,97026
116396,60698,96876
116415,61009,96919
116446,61257,96943
116465,61060,96834
116496,60747,96715
116515,60628,96677
116546,60353,96679
116565,60249,96713
116596,60112,96739
116615,60123,96728
116646,60148,96723
116665,60164,96722
116696,60167,96719
116717,60204,96696
116746,60269,96649
116767,60322,96636
116796,60466,96624
116817,60531,96614
116846,60589,96581
116867,60593,96531
116896,60752,96506
116917,60807,96509
116946,60864,96517
116967,60843,96502
116996,60870,96502
117017,60855,96502
117046,60852,96539
117067,60821,96566
117096,60825,96572
117117,60831,96574
117147,60867,96587
117166,60877,96591
117197,60912,96580
117216,60949,96583
117247,60950,96604
117266,61005,96615
117297,60973,96619
117316,61026,96614
117347,60991,96620
117366,61021,96620
117397,61028,96619
117416,61057,96622
117447,61096,96656
117466,61176,96665
117497,61144,96678
117516,61208,96690
117547,61197,96705
117566,61215,96701
117597,61187,96716
117618,61153,96715
117647,61151,96726
117668,61159,96732
117697,61189,96729
117718,61174,96723
117747,61173,96720
117768,61142,96714
117797,61163,96711
117818,61137,96713
117847,61147,96717
117868,61118,96708
117897,61129,96686
117918,61107,96673
117947,61158,96669
117968,61158,96667
117997,61171,96700
118018,61144,96708
118048,61115,96735
118067,61068,96725
118098,61047,96729
118117,61021,96712
118148,60948,96702
118167,60959,96696
118198,60897,96687
118217,60925,96678
118248,60827,96685
118267,60805,96710
118298,60677,96737
118317,60662,96761
118348,60589,96807
118367,60594,96867
118398,60531,96932
118417,60599,96951
118448,60525,96998
118467,60449,97043
118498,60251,97097
118517,60181,97121
118548,60072,97076
118569,60038,97007
118598,59924,96959
118619,59820,96929
118648,59708,96938
118669,59641,96953
118698,59610,96964
118719,59512,96962
118748,59505,96958
118769,59448,96941
118798,59460,96942
118819,59434,96961
118848,59477,96953
118869,59433,96950
118898,59457,96963
118919,59446,96976
118948,59451,96938
118969,59441,96891
118999,59429,96771
119018,59411,96680
119049,59400,96629
119068,59423,96587
119099,59445,96435
119118,59558,96404
119149,59667,96393
119168,59788,96485
119199,59743,96656
119218,59758,96750
119249,59765,96834
119268,59854,96870
119299,59900,96915
119318,59951,96970
119349,59905,96997
119368,59955,97010
119399,59938,97100
119418,59962,97166
119449,59980,97305
119470,59983,97329
119499,60004,97322
119520,60027,97301
119549,60051,97259
119570,60022,97197
119599,60066,97115
119620,60027,97073
119649,60031,97050
119670,59997,97054
119699,60034,97046
119720,60005,97054
119749,60027,97037
119770,59986,97020
119799,59979,97150
119820,59979,97234
119849,60003,97334
119870,59983,97392
119899,59946,97523
119920,59927,97629
119950,59916,97802
119969,59901,97846
120000,59870,97830
120019,59827,97751
120050,59694,97642
120069,59671,97603
120100,59532,97526
120119,59519,97479
120150,59373,97441
120169,59353,97411
120200,59267,97366
120219,59273,97341
120250,59233,97313
120269,59259,97301
120300,59218,97269
120319,59237,97258
120350,59214,97251
120369,59217,97244
120400,59215,97215
120421,59190,97207
120450,59190,97147
120471,59203,97107
120500,59220,97020
120521,59207,96915
120550,59217,96573
120571,59172,96321
120600,59165,96079
120621,59149,96010
120650,59225,96037
120671,59201,96159
120700,59250,96578
120721,59293,96755
120750,59366,96943
120771,59412,96972
120800,59495,97085
120821,59490,97153
120851,59484,97204
120870,59469,97190
120901,59466,97176
120920,59471,97163
120951,59464,97143
120970,59502,97148
121001,59485,97135
121020,59532,97124
121051,59494,97103
121070,59545,97111
121101,59486,97090
121120,59524,97081
121151,59506,97075
121170,59569,97069
121201,59542,97053
121220,59562,97051
121251,59509,97048
121270,59530,97092
121301,59483,97113
121320,59488,97117
121351,59453,97115
121372,59404,97148
121401,59374,97198
121422,59350,97228
121451,59333,97214
121472,59285,97194
121501,59300,97163
121522,59226,97155
121551,59202,97136
121572,59140,97120
121601,59087,97088
121622,59033,97074
121651,59069,97044
121672,59017,97024
121701,59026,97001
121722,58999,97018
121751,59012,97009
121772,59020,97050
121802,59057,97101
121821,59068,97116
121852,59080,97115
121871,59096,97111
121902,59076,97088
121921,59109,97072
121952,59134,96985
121971,59213,96945
122002,59153,96961
122021,59184,96995
122052,59197,96974
122071,59258,96876
122102,59273,96654
122121,59252,96774
122152,59197,96954
122171,59245,97034
122202,59317,96999
122221,59369,96979
122252,59367,97056
122271,59330,97118
122302,59374,97128
122323,59410,97052
122352,59415,96996
122373,59371,96976
122402,59374,96920
122423,59338,96885
122452,59358,96820
122473,59321,96751
122502,59334,96659
122523,59319,96631
122552,59337,96619
122573,59300,96606
122602,59321,96570
122623,59299,96549
122652,59343,96597
122673,59307,96667
122702,59305,96757
122723,59295,96797
122753,59268,96855
122772,59225,96863
122803,59179,96867
122822,59153,96861
122853,59130,96886
122872,59174,96891
122903,59093,96858
122922,59084,96798
122953,58967,96711
122972,58958,96660
123003,58876,96597
123022,58872,96562
123053,58812,96529
123072,58846,96521
123103,58820,96550
123122,58871,96570
123153,58879,96643
123172,58930,96661
123203,58945,96690
123222,58956,96671
123253,58934,96610
123274,58947,96545
123303,58972,96398
123324,59001,96324
123353,59127,96376
123374,59184,96369
123403,59372,96385
123424,59685,96607
123453,60168,96908
123474,60263,97031
123503,60536,97119
123524,60714,97176
123553,61179,97190
123574,61270,97169
123603,61233,97172
123624,61209,97196
123653,61356,97393
123674,62055,97970
123704,62628,98274
123723,62704,98424
123754,63130,98768
123773,63584,99242
123804,64962,100132
123823,65591,100318
123854,66585,101361
123873,68076,100712
123904,65063,100136
123923,65858,101216
123954,67573,100812
123973,66657,100922
124004,66638,100850
124023,66830,100665
124054,66692,100478
124073,66667,100486
124104,66829,100574
124123,66935,100504
124154,66551,100225
124175,66212,100078
124204,65757,99922
124225,65659,99897
124254,65619,99822
124275,65491,99714
124304,65381,99614
124325,65286,99499
124354,65076,99358
124375,65033,99271
124404,65033,99252
124425,65089,99221
124454,64971,99162
124475,65132,99344
124504,65047,98892
124525,63994,98530
124554,63360,98383
124575,63082,98334
124605,62902,98310
124624,62821,98306
124655,62755,98271
124674,62699,98240
124705,62723,98204
124724,62851,98216
124755,63045,98314
124774,63233,98356
124805,63486,98496
124824,63737,98647
124855,64443,99152
124874,65137,99532
124905,65806,99784
124924,66170,100058
124955,67537,101170
124974,68984,101893
125005,70288,102626
125026,71135,102382
125055,69875,101547
125076,69129,101409
125105,69312,101813
125126,69997,102378
125155,71187,103126
125176,71660,103155
125205,71304,102898
125226,71121,103083
125255,72021,103918
125276,72110,103660
125305,72405,104356
125326,73363,104821
125355,76168,108154
125376,84322,113476
125405,92906,68082
125426,49674,31567
125455,15421,11338
125476,8453,6561
125506,4032,3221
125525,2608,2083
125556,1481,1240
125575,1157,974
125606,855,735
125625,809,649
125656,699,603
125675,725,580
125706,669,584
125725,690,567
125756,648,536
125775,674,520
125806,619,496
125825,649,470
125856,565,444
125875,592,443
125906,560,443
125925,585,465
125956,575,474
125977,601,502
126006,631,504
126027,628,508
126056,642,513
126077,647,509
126106,668,509
126127,622,511
126156,671,510
126177,618,504
126206,668,503
126227,636,490
126256,671,482
126277,647,469
126306,666,472
126327,644,489
126356,663,484
126377,646,488
126407,634,524
126426,613,524
126457,607,524
126476,617,513
126507,596,514
126526,628,503
126557,600,505
126576,644,508
126607,582,505
126626,621,498
126657,581,483
126676,637,489
126707,600,486
126726,655,500
126757,623,493
126776,667,498
126807,627,513
126826,679,516
126857,647,522
126878,641,526
126907,628,522
126928,631,522
126957,638,517
126978,630,509
127007,642,501
127028,619,500
127057,648,504
127078,601,510
127107,641,501
127128,609,493
127157,653,479
127178,619,470
127207,658,454
127228,631,453
127257,651,465
127278,631,481
127308,633,517
127327,599,522
127358,608,519
127377,603,514
127408,593,511
127427,615,517
127458,576,511
127477,630,513
127508,589,504
127527,649,517
127558,578,519
127577,611,508
127608,576,497
127627,642,497
127658,619,495
127677,655,495
127708,617,501
127727,664,513
127758,646,515
127777,679,517
127808,632,514
127829,652,514
127858,644,505
127879,633,505
127908,650,504
127929,640,499
127958,656,491
127979,601,492
128008,642,499
128029,606,496
128058,645,480
128079,616,473
128108,644,461
128129,630,462
128158,658,462
128179,631,465
128208,653,489
128229,626,485
128259,624,516
128278,611,524
128309,609,518
128328,620,518
128359,594,510
128378,632,504
128409,591,511
128428,652,514
128459,587,517
128478,612,507
128509,579,500
128528,632,496
128559,596,492
128578,652,492
128609,619,495
128628,663,505
128659,628,511
128678,653,506
128709,649,508
128730,625,501
128759,623,505
128780,626,506
128809,648,501
128830,634,497
128859,660,493
128880,618,496
128909,661,491
128930,607,495
128959,648,498
128980,614,488
129009,646,474
129030,624,469
129059,649,463
129080,635,474
129109,657,470
129130,634,490
129160,631,532
129179,606,533
129210,611,541
129229,611,519
129260,589,517
129279,619,529
129310,590,514
129329,627,514
129360,592,516
129379,633,511
129410,582,509
129429,619,506
129460,581,502
129479,639,491
129510,598,489
129529,646,499
129560,610,507
129579,645,507
129610,631,517
129629,658,522
129660,605,518
129681,622,509
129710,630,515
129731,626,506
129760,644,511
129781,640,505
129810,667,495
129831,618,495
129860,657,499
129881,619,488
129910,654,485
129931,614,476
129960,660,461
129981,637,459
130010,654,454
130031,637,472
130060,659,473
130081,632,481
130111,626,512
130130,605,514
130161,603,513
130180,605,511
130211,586,516
130230,623,521
130261,595,509
130280,649,505
130311,590,517
130330,642,509
130361,578,512
130380,625,513
130411,580,488
130430,635,495
130461,610,498
130480,656,491
130511,626,510
130530,665,510
130561,648,514
130580,663,518
130611,625,505
130632,627,509
130661,628,506
130682,623,500
130711,652,505
130732,627,503
130761,658,502
130782,613,497
130811,648,492
130832,611,484
130861,639,485
130882,609,481
130911,641,453
130932,618,454
130961,655,446
130982,628,461
131011,652,477
131032,633,481
131062,621,521
131081,608,513
131112,622,529
131131,612,519
131162,590,522
131181,617,526
131212,594,516
131231,626,516
131262,595,514
131281,635,531
131312,584,517
131331,632,505
131362,579,501
131381,638,496
131412,607,510
131431,657,501
131462,601,503
131481,657,508
131512,637,519
131531,663,522
131562,614,509
131583,624,517
131612,619,508
131633,610,516
131662,640,502
131683,628,510
131712,651,497
131733,607,496
131762,662,498
131783,605,497
131812,623,492
131833,610,488
131862,641,474
131883,615,463
131912,656,456
131933,636,463
131962,658,469
131983,642,476
132013,646,520
132032,620,516
132063,622,518
132082,618,516
132113,616,515
132132,629,502
132163,607,520
132182,643,511
132213,591,503
132232,651,515
132263,587,509
132282,638,507
132313,580,501
132332,634,497
132363,608,500
132382,659,485
132413,604,499
132432,669,502
132463,632,506
132482,656,518
132513,638,503
132534,620,507
132563,616,506
132584,619,507
132613,639,504
132634,627,509
132663,648,501
132684,617,503
132713,670,499
132734,612,499
132763,649,496
132784,608,492
132813,638,488
132834,610,478
132863,640,468
132884,616,460
132913,656,450
132934,625,464
132963,647,471
132984,627,493
133014,618,502
133033,609,508
133064,604,506
133083,608,508
133114,592,502
133133,617,501
133164,591,498
133183,625,499
133214,589,492
133233,635,500
133264,585,508
133283,615,495
133314,567,483
133333,622,490
133364,586,498
133383,638,499
133414,600,507
133433,657,508
133464,620,518
133483,661,512
133514,640,521
133535,624,515
133564,612,523
133585,632,524
133614,649,516
133635,635,515
133664,646,515
133685,629,512
133714,653,503
133735,608,496
133764,642,496
133785,612,502
133814,648,479
133835,628,481
133864,650,469
133885,630,471
133914,646,470
133935,633,489
133965,639,536
133984,619,533
134015,631,542
134034,626,532
134065,611,535
134084,636,525
134115,605,518
134134,640,508
134165,605,515
134184,646,508
134215,595,505
134234,643,509
134265,587,502
134284,635,494
134315,597,494
134334,659,491
134365,619,496
134384,668,495
134415,637,505
134434,654,499
134465,635,513
134486,625,507
134515,619,508
134536,629,501
134565,633,508
134586,621,502
134615,653,505
134636,635,494
134665,654,491
134686,607,494
134715,649,493
134736,611,485
134765,648,484
134786,605,478
134815,651,466
134836,631,468
134865,649,443
134886,632,451
134915,643,473
134936,624,484
134966,614,515
134985,598,509
135016,600,513
135035,603,507
135066,576,503
135085,618,498
135116,583,499
135135,632,497
135166,578,499
135185,631,508
135216,570,497
135235,611,503
135266,580,479
135285,627,482
135316,603,477
135335,640,478
135366,606,491
135385,647,498
135416,625,496
135435,648,510
135466,638,509
135487,618,507
135516,625,514
135537,618,511
135566,638,512
135587,625,510
135616,657,513
135637,616,502
135666,649,515
135687,601,506
135716,650,514
135737,619,503
135766,653,490
135787,645,484
135816,667,482
135837,642,458
135866,654,472
135887,631,484
135917,632,508
135936,604,517
135967,605,519
135986,607,513
136017,590,511
136036,627,518
136067,585,515
136086,623,513
136117,589,506
136136,643,516
136167,578,516
136186,605,513
136217,584,492
136236,627,498
136267,623,499
136286,652,492
136317,632,497
136336,663,501
136367,637,509
136386,668,516
136417,651,517
136438,629,514
136467,626,518
136488,630,509
136517,648,509
136538,635,496
136567,658,499
136588,623,508
136617,654,494
136638,620,493
136667,641,495
136688,611,484
136717,643,475
136738,624,461
136767,649,458
136788,626,441
136817,650,460
136838,635,474
136868,628,514
136887,603,507
136918,617,511
136937,606,508
136968,601,504
136987,608,506
137018,579,499
137037,636,500
137068,585,496
137087,638,502
137118,579,506
137137,623,505
137168,575,492
137187,630,497
137218,599,491
137237,648,489
137268,618,493
137287,655,502
137318,628,503
137337,653,507
137368,641,505
137389,620,501
137418,617,500
137439,626,501
137468,632,505
137489,627,486
137518,652,493
137539,616,502
137568,654,490
137589,593,500
137618,631,488
137639,595,487
137668,639,481
137689,598,470
137718,633,464
137739,614,458
137768,632,459
137789,610,471
137819,610,500
137838,594,502
137869,594,495
137888,588,486
137919,569,487
137938,599,500
137969,582,505
137988,629,507
138019,588,522
138038,644,523
138069,586,517
138088,622,511
138119,593,503
138138,655,511
138169,612,507
138188,675,513
138219,622,519
138238,683,519
138269,645,535
138288,669,540
138319,629,541
138340,648,546
138369,647,534
138390,637,548
138419,670,543
138440,642,541
138469,679,633
138490,650,1168
138519,1878,3073
138540,1870,2876
138569,1579,2389
138590,1310,2075
138619,1055,1493
138640,826,1159
138669,697,784
138690,648,641
138720,661,579
138739,625,563
138770,634,550
138789,628,554
138820,613,544
138839,644,543
138870,607,536
138889,641,523
138920,593,518
138939,645,524
138970,582,530
138989,638,515
139020,620,525
139039,688,521
139070,630,505
139089,744,578
139120,786,662
139139,834,678
139170,775,659
139191,751,659
139220,773,664
139241,805,650
139270,897,638
139291,833,599
139320,860,594
139341,875,594
139370,1008,599
139391,989,595
139420,998,598
139441,1255,643
139470,1542,640
139491,1482,609
139520,1252,549
139541,1187,570
139570,1331,625
139591,1379,618
139621,1739,824
139640,2585,1230
139671,5113,4000
139690,6773,3848
139721,4085,2378
139740,3284,2424
139771,5152,5526
139790,7576,7616
139821,8383,8712
139840,7844,8999
139871,7800,11300
139890,8690,12813
139921,8263,13338
139940,9332,12676
139971,8319,11455
139990,8223,11117
140021,7927,9980
140040,7251,9033
140071,6930,10122
140092,7080,9708
140121,4198,7083
140142,3711,6109
140171,4380,6806
140192,4195,6292
140221,2997,4590
140242,2479,4211
140271,1954,3889
140292,1550,3395
140321,910,2496
140342,734,2080
140371,751,1970
140392,728,1963
140422,718,2007
140441,718,2012
140472,694,2028
140491,720,2042
140522,688,2058
140541,734,2065
140572,699,2057
140591,735,2045
140622,685,2015
140641,717,2001
140672,699,1975
140691,744,1981
140722,716,1975
140741,757,1977
140772,745,1967
140791,756,1957
140822,718,1931
140843,721,1912
140872,729,1904
140893,719,1890
140922,758,1872
140943,718,1863
140972,762,1858
140993,694,1851
141022,747,1835
141043,701,1828
141072,738,1804
141093,704,1784
141122,737,1769
141143,715,1765
141172,747,1762
141193,727,1767
141222,744,1783
141243,720,1784
141273,717,1822
141292,714,1831
141323,707,1838
141342,705,1836
141373,691,1862
141392,710,1861
141423,678,1857
141442,726,1852
141473,688,1842
141492,741,1839
141523,677,1854
141542,725,1848
141573,684,1829
141592,726,1806
141623,679,1777
141642,728,1765
141673,706,1754
141692,753,1753
141723,719,1758
141742,741,1759
141773,735,1750
141792,747,1744
141823,708,1730
141844,716,1720
141873,714,1714
141894,710,1708
141923,744,1710
141944,717,1714
141973,747,1716
141994,700,1730
142023,740,1739
142044,697,1746
142073,720,1736
142094,698,1719
142123,735,1709
142144,716,1700
142173,748,1697
142194,717,1692
142223,749,1705
142244,731,1719
142274,716,1741
142293,698,1742
142324,693,1739
142343,708,1736
142374,677,1723
142393,730,1728
142424,686,1727
142443,742,1744
142474,672,1735
142493,712,1718
142524,678,1712
142543,723,1705
142574,681,1699
142593,736,1704
142624,699,1710
142643,745,1709
142674,716,1714
142693,744,1730
142724,737,1740
142743,745,1730
142774,706,1730
142795,717,1733
142824,718,1728
142845,713,1716
142874,732,1717
142895,719,1715
142924,758,1727
142945,703,1719
142974,737,1716
142995,698,1724
143024,730,1716
143045,703,1714
143074,744,1680
143095,714,1672
143124,736,1673
143145,717,1692
143175,713,1727
143194,702,1727
143225,703,1720
143244,707,1728
143275,678,1735
143294,718,1722
143325,691,1719
143344,732,1703
143375,670,1718
143394,715,1718
143425,672,1707
143444,718,1702
143475,681,1700
143494,740,1704
143525,698,1700
143544,746,1699
143575,712,1717
143594,747,1718
143625,733,1722
143644,750,1722
143675,707,1713
143696,718,1722
143725,725,1718
143746,709,1715
143775,731,1709
143796,713,1701
143825,753,1695
143846,707,1700
143875,726,1700
143896,688,1699
143925,729,1687
143946,701,1681
143975,736,1665
143996,716,1649
144025,748,1655
144046,717,1661
144075,732,1675
144096,717,1675
144126,710,1716
144145,692,1708
144176,699,1715
144195,700,1715
144226,682,1706
144245,715,1705
144276,680,1706
144295,723,1702
144326,684,1703
144345,740,1704
144376,672,1693
144395,713,1698
144426,679,1685
144445,733,1687
144476,692,1677
144495,736,1678
144526,703,1689
144545,746,1701
144576,728,1707
144595,739,1717
144626,743,1716
144647,716,1714
144676,716,1694
144697,717,1697
144726,733,1678
144747,714,1667
144776,751,1651
144797,697,1636
144826,748,1612
144847,692,1601
144876,721,1592
144897,693,1587
144926,728,1575
144947,708,1572
144976,740,1574
144997,711,1593
145026,743,1635
145047,723,1653
145076,733,1663
145097,721,1670
145127,724,1721
145146,714,1731
145177,697,1738
145196,705,1746
145227,681,1733
145246,720,1732
145277,679,1729
145296,734,1713
145327,682,1716
145346,725,1713
145377,671,1701
145396,718,1689
145427,689,1682
145446,736,1669
145477,708,1674
145496,748,1689
145527,725,1691
145546,751,1699
145577,702,1690
145598,714,1688
145627,728,1683
145648,721,1680
145677,746,1689
145698,695,1694
145727,745,1701
145748,700,1723
145777,723,1743
145798,705,1729
145827,745,1706
145848,723,1704
145877,744,1740
145898,718,1746
145928,727,1771
145947,703,1752
145978,690,1725
145997,720,1711
146028,677,1697
146047,732,1702
146078,674,1698
146097,738,1708
146128,667,1688
146147,712,1676
146178,667,1684
146197,736,1693
146228,691,1686
146247,734,1685
146278,699,1693
146297,746,1701
146328,723,1718
146347,750,1722
146378,739,1718
146399,714,1711
146428,713,1725
146449,724,1742
146478,721,1738
146499,717,1731
146528,742,1734
146549,713,1747
146578,760,1779
146599,696,1775
146628,742,1755
146649,702,1746
146678,737,1733
146699,701,1742
146728,741,1712
146749,713,1704
146778,749,1691
146799,720,1697
146828,751,1725
146849,721,1722
146879,713,1760
146898,707,1754
146929,697,1744
146948,701,1737
146979,680,1716
146998,708,1710
147029,682,1704
147048,731,1705
147079,682,1715
147098,741,1717
147129,670,1723
147148,714,1727
147179,675,1727
147198,740,1728
147229,687,1717
147248,740,1722
147279,704,1731
147298,748,1733
147329,722,1721
147348,747,1714
147379,732,1698
147400,724,1696
147429,712,1683
147450,717,1669
147479,730,1665
147500,719,1666
147529,748,1664
147550,709,1665
147579,744,1656
147600,694,1658
147629,731,1662
147650,703,1659
147679,740,1647
147700,706,1618
147729,743,1608
147750,717,1607
147779,736,1625
147800,719,1640
147830,717,1660
147849,701,1650
147880,702,1655
147899,694,1642
147930,686,1640
147949,704,1633
147980,667,1629
147999,721,1638
148030,686,1624
148049,733,1631
148080,668,1636
148099,711,1632
148130,671,1607
148149,720,1615
148180,684,1618
148199,728,1627
148230,694,1632
148249,745,1636
148280,711,1646
148299,746,1647
148330,735,1651
148349,742,1650
148380,703,1645
148401,717,1643
148430,721,1638
148451,708,1635
148480,735,1638
148501,714,1645
148530,764,1644
148551,698,1637
148580,743,1647
148601,694,1640
148630,735,1647
148651,703,1628
148680,734,1610
148701,709,1594
148730,747,1593
148751,717,1592
148780,745,1608
148801,715,1611
148831,721,1655
148850,708,1656
148881,701,1659
148900,698,1651
148931,691,1648
148950,707,1650
148981,679,1656
149000,726,1658
149031,684,1648
149050,731,1647
149081,670,1651
149100,718,1649
149131,663,1642
149150,717,1634
149181,691,1628
149200,735,1621
149231,695,1623
149250,744,1635
149281,707,1634
149300,750,1643
149331,728,1647
149350,737,1647
149381,706,1647
149402,716,1638
149431,712,1635
149452,714,1629
149481,735,1627
149502,716,1619
149531,752,1622
149552,696,1609
149581,727,1617
149602,703,1611
149631,722,1613
149652,699,1604
149681,738,1590
149702,710,1584
149731,744,1567
149752,721,1580
149781,736,1578
149802,716,1595
149831,737,1605
149852,715,1607
149882,706,1636
149901,699,1632
149932,696,1636
149951,698,1636
149982,674,1631
150001,719,1643
150032,679,1629
150051,731,1628
150082,674,1636
150101,729,1643
150132,661,1620
150151,707,1621
150182,669,1616
150201,729,1614
150232,686,1618
150251,735,1613
150282,705,1610
150301,748,1617
150332,717,1624
150351,747,1634
150382,720,1630
150403,710,1621
150432,709,1617
150453,713,1614
150482,726,1620
150503,711,1609
150532,738,1605
150553,709,1600
150582,746,1609
150603,688,1603
150632,713,1593
150653,688,1596
150682,733,1587
150703,701,1572
150732,732,1560
150753,711,1550
150782,740,1548
150803,719,1551
150832,740,1569
150853,716,1574
150883,700,1611
150902,699,1611
150933,700,1614
150952,700,1609
150983,680,1599
151002,702,1596
151033,676,1603
151052,721,1600
151083,682,1607
151102,725,1593
151133,673,1604
151152,715,1597
151183,672,1595
151202,724,1587
151233,675,1582
151252,722,1585
151283,695,1577
151302,737,1587
151333,703,1588
151352,747,1596
151383,721,1604
151402,751,1606
151433,738,1600
151454,716,1609
151483,709,1597
151504,710,1598
151533,732,1592
151554,718,1587
151583,742,1591
151604,708,1587
151633,743,1585
151654,698,1583
151683,726,1579
151704,685,1578
151733,727,1571
151754,694,1563
151783,734,1550
151804,703,1542
151833,742,1540
151854,716,1532
151883,743,1547
151904,718,1574
151934,713,1598
151953,698,1595
151984,699,1596
152003,699,1594
152034,687,1600
152053,702,1593
152084,672,1607
152103,715,1591
152134,679,1598
152153,734,1588
152184,678,1604
152203,713,1596
152234,655,1582
152253,711,1574
152284,678,1573
152303,736,1573
152334,693,1577
152353,734,1581
152384,704,1584
152403,749,1589
152434,722,1594
152453,742,1602
152484,735,1591
152505,715,1595
152534,716,1590
152555,712,1589
152584,731,1587
152605,712,1580
152634,736,1574
152655,715,1576
152684,740,1568
152705,692,1569
152734,725,1569
152755,690,1559
152784,733,1547
152805,709,1543
152834,733,1523
152855,713,1514
152884,731,1516
152905,722,1533
152934,739,1549
152955,708,1554
152985,705,1590
153004,698,1586
153035,697,1593
153054,699,1587
153085,672,1585
153104,703,1590
153135,675,1593
153154,723,1589
153185,680,1577
153204,731,1596
153235,665,1589
153254,709,1590
153285,665,1580
153304,718,1571
153335,685,1573
153354,736,1582
153385,692,1575
153404,736,1578
153435,714,1588
153454,748,1575
153485,734,1585
153506,712,1574
153535,709,1571
153556,714,1568
153585,704,1565
153606,709,1561
153635,730,1554
153656,715,1555
153685,748,1549
153706,693,1546
153735,722,1547
153756,696,1551
153785,723,1569
153806,692,1579
153835,728,1574
153856,704,1563
153885,730,1572
153906,710,1581
153935,740,1605
153956,721,1640
153985,749,1679
154006,724,1712
154036,719,2256
154055,870,2718
154086,1418,3550
154105,1695,4694
154136,4602,12383
154155,15680,33066
154186,27670,36899
154205,33883,40928
154236,37200,36287
154255,31446,26961
154286,20303,16277
154305,13986,11055
154336,8357,7790
154355,7064,6723
154386,5654,5161
154405,4879,4251
154436,3806,3260
154455,3225,2539
154486,2295,1329
154505,1514,694
154536,666,499
154555,642,500
154586,622,509
154607,634,519
154636,630,523
154657,635,530
154686,659,673
154707,645,932
154736,721,1249
154757,714,1563
154786,1062,2924
154807,1389,3472
154836,2423,3771
154857,2332,4007
154886,2456,3100
154907,2355,3129
154936,2821,3397
154957,2969,3469
154986,3217,3648
155007,3365,3849
155036,3931,4412
155057,4580,5004
155087,5590,5625
155106,5940,5731
155137,3323,2300
155156,1443,1712
155187,1165,1775
155206,1338,2100
155237,1860,2781
155256,2209,3143
155287,2824,3902
155306,3911,5440
155337,11722,12317
155356,16281,14799
155387,18415,14530
155406,18508,14686
155437,16109,11781
155456,12566,10232
155487,11725,9903
155506,12590,10758
155537,16268,13685
155556,19476,15560
155587,23987,16058
155608,23205,14058
155637,18957,11650
155658,18170,12135
155687,20864,13651
155708,21220,13298
155737,18732,12266
155758,17077,11605
155787,15305,10884
155808,15310,11916
155837,19954,15947
155858,24733,19277
155887,31592,23509
155908,36224,26079
155937,40664,28655
155958,43685,30105
155987,43365,28242
156008,41466,26926
156037,39656,25340
156058,37584,23418
156088,31026,18149
156107,25792,15439
156138,20891,13130
156157,19510,12754
156188,19516,12921
156207,19023,11888
156238,16834,11115
156257,17485,11853
156288,20785,14166
156307,24470,16748
156338,32828,21889
156357,36908,23114
156388,37185,22778
156407,37783,23388
156438,39447,24670
156457,40538,24940
156488,39522,23524
156507,38060,22553
156538,39422,25531
156557,42746,27730
156588,43404,27441
156609,43216,28102
156638,45389,31556
156659,48431,34774
156688,50406,35437
156709,49304,34862
156738,48626,35516
156759,49433,37678
156788,53510,45425
156809,60633,57525
156838,78973,84047
156859,91246,96829
156888,96967,99895
156909,97467,100607
156938,97894,101272
156959,98047,101634
156988,98099,102144
157009,98176,102370
157039,98269,102469
157058,98199,102392
157089,98045,102102
157108,97830,101760
157139,96655,98711
157158,93993,93743
157189,86735,80036
157208,80343,70528
157239,75625,62262
157258,73885,60892
157289,74207,65834
157308,76846,73190
157339,83518,82873
157358,86953,86780
157389,89032,88445
157408,89470,88268
157439,84627,77660
157458,79993,71940
157489,76289,70773
157508,77081,71515
157539,77195,72836
157558,79139,76023
157589,84254,85633
157610,90735,94730
157639,97169,100284
157660,98214,100904
157689,98107,100678
157710,97845,100273
157739,96975,97576
157760,93793,90671
157789,84506,75612
157810,76432,64115
157839,60739,49202
157860,52318,44303
157889,45721,38594
157910,39311,34058
157939,29341,25984
157960,19174,16651
157989,3044,4659
158010,1647,2605
158039,1332,1375
158060,1147,1019
158090,958,757
158109,852,669
158140,822,615
158159,763,535
158190,607,522
158209,628,521
158240,606,520
158259,640,525
158290,595,523
158309,645,520
158340,585,504
158359,628,502
158390,583,500
158409,652,506
158440,603,499
158459,661,510
158490,622,508
158509,665,520
158540,632,548
158559,673,549
158590,661,540
158611,645,541
158640,647,541
158661,650,530
158690,646,522
158711,637,517
158740,673,527
158761,654,518
158790,679,505
158811,625,505
158840,656,496
158861,623,491
158890,651,484
158911,605,480
158940,642,437
158961,618,432
158990,647,431
159011,634,437
159040,652,458
159061,624,452
159091,627,493
159110,613,487
159141,603,494
159160,608,504
159191,607,534
159210,642,538
159241,630,551
159260,660,534
159291,601,516
159310,630,508
159341,568,518
159360,613,528
159391,589,558
159410,645,550
159441,651,590
159460,726,623
159491,737,676
159510,805,728
159541,813,795
159560,861,818
159591,835,898
159612,861,960
159641,918,1042
159662,955,1125
159691,1116,1305
159712,1217,1474
159741,1536,1786
159762,1731,2014
159791,2040,2086
159812,2046,2123
159841,2122,2116
159862,2041,2040
159891,1873,1850
159912,1769,1771
159941,1678,1690
159962,1618,1674
159991,1571,1656
160012,1471,1617
160042,1397,1547
160061,1259,1439
160092,1154,1499
160111,1241,1675
160142,1344,1853
160161,1381,1939
160192,1376,2274
160211,1750,2951
160242,3020,5046
160261,4739,7135
160292,7489,9514
160311,9082,10380
160342,8576,8820
160361,7093,7570
160392,5607,6084
160411,4494,4949
160442,2884,3360
160461,2071,2457
160492,1282,1662
160511,1059,1269
160542,844,945
160561,742,729
160592,677,592
160613,679,568
160642,669,560
160663,682,553
160692,694,558
160713,671,540
160742,707,538
160763,630,529
160792,644,484
160813,597,480
160842,621,481
160863,585,466
160892,620,450
160913,586,436
160942,628,419
160963,589,416
160992,615,431
161013,623,470
161042,652,488
161063,636,530
161093,655,668
161112,714,712
161143,766,695
161162,700,666
161193,602,581
161212,656,666
161243,621,562
161262,683,551
161293,634,546
161312,661,548
161343,591,516
161362,630,485
161393,583,489
161412,634,494
161443,596,488
161462,625,493
161493,604,496
161512,648,511
161543,623,514
161562,654,513
161593,635,515
161614,621,527
161643,619,535
161664,624,529
161693,653,494
161714,586,499
161743,644,505
161764,618,507
161793,652,501
161814,592,509
161843,632,487
161864,598,492
161893,633,489
161914,602,456
161943,621,448
161964,600,438
161993,632,467
162014,624,462
162043,629,479
162064,604,474
162094,590,508
162113,610,513
162144,595,512
162163,615,511
162194,603,525
162213,684,545
162244,637,505
162263,670,496
162294,601,493
162313,657,491
162344,632,499
162363,666,488
162394,642,509
162413,667,507
162444,644,512
162465,631,507
162494,626,504
162515,609,491
162544,627,489
162565,597,483
162594,660,492
162615,605,492
162644,608,442
162665,564,435
162694,627,438
162715,605,447
162744,644,449
162765,626,473
162795,623,510
162814,616,532
162845,639,532
162864,617,505
162895,599,529
162914,616,519
162945,593,516
162964,633,508
162995,590,510
163014,652,511
163045,591,502
163064,652,511
163095,576,498
163114,630,502
163145,588,494
163164,648,487
163195,620,498
163214,668,480
163245,630,499
163264,671,501
163295,639,493
163314,662,501
163345,635,497
163366,632,515
163395,633,516
163416,630,510
163445,645,504
163466,627,513
163495,640,519
163516,627,518
163545,670,521
163566,608,512
163595,646,510
163616,610,522
163645,652,520
163666,615,502
163695,658,499
163716,628,486
163745,650,473
163766,631,483
163795,666,485
163816,638,499
163846,631,522
163865,613,527
163896,618,521
163915,609,523
163946,610,518
163965,603,506
163996,577,515
164015,605,520
164046,587,518
164065,632,511
164096,584,522
164115,628,526
164146,571,520
164165,622,510
164196,588,513
164215,667,523
164246,622,522
164265,671,522
164296,634,519
164315,680,517
164346,647,475
164365,622,518
164396,674,516
164417,647,500
164446,633,498
164467,641,500
164496,663,513
164517,660,507
164546,660,496
164567,635,500
164596,693,520
164617,647,503
164646,665,488
164667,618,485
164696,649,489
164717,607,478
164746,643,464
164767,631,457
164796,656,451
164817,627,442
164846,643,456
164867,626,473
164897,616,504
164916,605,523
164947,640,505
164966,606,507
164997,610,513
165016,606,517
165047,600,519
165066,621,512
165097,603,517
165116,633,505
165147,592,506
165166,655,515
165197,585,514
165216,621,508
165247,588,500
165266,628,498
165297,603,492
165316,643,490
165347,601,493
165366,655,485
165397,622,508
165416,656,511
165447,651,520
165466,673,521
165497,663,514
165518,628,517
165547,637,505
165568,628,508
165597,639,505
165618,623,507
165647,660,485
165668,634,485
165697,671,490
165718,629,485
165747,674,485
165768,616,488
165797,648,484
165818,612,489
165847,659,465
165868,601,464
165897,653,465
165918,622,468
165947,667,468
165968,640,485
165997,657,488
166018,641,496
166048,636,550
166067,619,538
166098,616,540
166117,616,532
166148,606,529
166167,619,528
166198,599,543
166217,636,536
166248,600,523
166267,651,528
166298,583,525
166317,637,528
166348,588,511
166367,632,504
166398,585,501
166417,659,507
166448,610,515
166467,647,502
166498,597,492
166517,636,492
166548,603,497
166567,640,511
166598,636,513
166619,616,518
166648,627,513
166669,627,513
166698,638,515
166719,630,520
166748,664,523
166769,649,515
166798,684,509
166819,634,514
166848,683,515
166869,643,506
166898,670,507
166919,628,494
166948,660,468
166969,634,449
166998,655,454
167019,645,469
167048,691,505
167069,675,512
167098,681,523
167119,646,538
167149,649,598
167168,630,600
167199,625,609
167218,634,616
167249,623,627
167268,660,643
167299,631,652
167318,679,683
167349,666,715
167368,726,765
167399,705,852
167418,785,952
167449,898,1220
167468,1091,1493
167499,1413,2017
167518,1770,2513
167549,2341,3340
167568,2684,3501
167599,2301,2889
167618,1818,2211
167649,1114,1414
167668,936,1142
167699,747,950
167720,730,904
167749,722,914
167770,727,949
167799,785,975
167820,779,982
167849,834,1010
167870,812,1043
167899,851,1070
167920,837,1127
167949,960,1295
167970,1021,1398
167999,1189,1483
168020,1194,1502
168049,1281,1523
168070,1257,1501
168099,1200,1363
168120,1106,1403
168149,1153,1403
168170,1123,1396
168200,1009,1298
168219,930,1251
168250,880,1204
168269,926,1258
168300,896,1270
168319,937,1266
168350,940,1336
168369,1004,1372
168400,995,1444
168419,1057,1453
168450,1005,1475
168469,1084,1536
168500,1146,1695
168519,1287,1816
168550,1425,1975
168569,1531,2055
168600,1605,2154
168619,1725,2240
168650,1807,2403
168669,1913,2549
168700,1968,2739
168721,2054,2845
168750,2232,3051
168771,2363,3187
168800,2596,3439
168821,2802,3635
168850,3155,3923
168871,3292,4121
168900,3399,4122
168921,3232,3991
168950,3006,3669
168971,2754,3492
169000,2692,3485
169021,2779,3708
169050,3343,4429
169071,3796,4952
169100,4415,5583
169121,4696,5937
169150,5105,6549
169171,5455,7108
169201,6271,8212
169220,6940,9034
169251,8447,10800
169270,9881,12662
169301,13239,16846
169320,16472,20509
169351,22518,27078
169370,27148,31848
169401,33655,38194
169420,37166,41424
169451,41029,44844
169470,42595,46173
169501,43770,48187
169520,44961,49206
169551,46959,51822
169570,48756,53072
169601,48759,52635
169620,48195,50781
169651,44712,46522
169670,42270,45126
169701,40768,43938
169720,40059,43401
169751,39124,42713
169770,38580,42354
169801,38202,42584
169822,39171,44115
169851,42808,48052
169872,45857,51047
169901,49715,54124
169922,51302,55479
169951,53209,57174
169972,54249,58010
170001,54478,57601
170022,53713,56353
170051,51595,54088
170072,50227,53048
170101,49645,53146
170122,50531,53839
170151,51844,55114
170172,52731,55868
170201,53384,56910
170222,53640,57627
170251,54533,58303
170272,54824,58516
170302,54992,59658
170321,56038,61131
170352,59148,64899
170371,62310,67144
170402,65512,69337
170421,66072,69616
170452,64929,67904
170471,63259,66209
170502,61344,64864
170521,60414,64030
170552,59382,63921
170571,60089,64876
170602,62159,67046
170621,63509,68565
170652,65792,70127
170671,67118,70458
170702,69346,71829
170721,71059,72253
170752,72116,72420
170771,72815,72131
170802,69938,67829
170821,65381,63831
170852,58781,58426
170873,54940,55252
170902,50429,51982
170923,49351,51716
170952,50537,53077
170973,51708,53838
171002,52605,53877
171023,51398,52332
171052,48368,49243
171073,45134,46234
171102,37936,37765
171123,31360,31390
171152,22755,23450
171173,18528,19403
171202,14359,15558
171223,12194,13681
171252,10423,11790
171273,9460,10841
171302,8322,9967
171323,7826,9686
171352,7009,8921
171373,6269,8255
171403,5500,7525
171422,4981,6857
171453,4208,5867
171472,3738,5002
171503,2379,3135
171522,1474,2004
171553,807,1125
171572,730,881
171603,660,691
171622,713,627
171653,650,575
171672,703,567
171703,632,551
171722,661,538
171753,623,552
171772,683,576
171803,659,648
171822,725,688
171853,703,685
171872,767,662
171903,736,662
171922,757,711
171953,739,858
171974,761,919
172003,755,937
172024,764,928
172053,776,932
172074,776,958
172103,819,1064
172124,843,1212
172153,1056,1656
172174,1294,2120
172203,2254,3060
172224,2873,3353
172253,3327,3924
172274,3419,4585
172303,3850,6741
172324,5850,31144
172353,108863,72727
172374,92565,74317
172403,92780,78597
172424,96479,79509
172453,97909,79841
172474,97894,79117
172504,98344,74987
172523,76148,46346
172554,24456,11689
172573,8396,4796
172604,2528,1774
172623,1809,1516
172654,1383,1205
172673,1280,1175
172704,1227,1270
172723,1291,1261
172754,1250,1235
172773,1240,1146
172804,1107,1100
172823,1125,1075
172854,984,1007
172873,949,915
172904,761,759
172923,735,688
172954,666,619
172973,699,609
173004,668,567
173023,704,550
173054,696,528
173075,673,529
173104,664,536
173125,670,540
173154,680,545
173175,679,545
173204,674,552
173225,640,562
173254,680,554
173275,641,545
173304,677,551
173325,629,539
173354,673,535
173375,645,549
173404,708,644
173425,737,864
173454,1132,1704
173475,1291,1473
173504,838,806
173525,848,814
173555,802,884
173574,777,1006
173605,951,2606
173624,2728,23790
173655,51203,50367
173674,48696,43662
173705,8641,5140
173724,1524,1968
173755,1171,1373
173774,996,1082
173805,725,887
173824,721,934
173855,632,875
173874,668,844
173905,621,764
173924,672,722
173955,623,676
173974,686,643
174005,638,607
174024,701,597
174055,664,617
174074,701,636
174105,684,673
174124,710,700
174155,674,766
174176,686,844
174205,699,1017
174226,703,1126
174255,734,1234
174276,737,1245
174305,760,1216
174326,721,1174
174355,747,1105
174376,696,1023
174405,719,923
174426,688,883
174455,711,837
174476,668,930
174505,742,1016
174526,719,1059
174555,775,1096
174576,751,1086
174605,770,1082
174626,758,1079
174656,759,1103
174675,743,1106
174706,762,1083
174725,744,1074
174756,752,1073
174775,753,1125
174806,776,1301
174825,880,1436
174856,912,1541
174875,986,1566
174906,945,1587
174925,1009,1624
174956,971,1654
174975,1030,1646
175006,985,1674
175025,1065,1724
175056,1058,1758
175075,1109,1731
175106,1047,1685
175125,1093,1689
175156,1046,1661
175175,1076,1651
175206,1031,1580
175225,1038,1556
175256,1017,1528
175277,990,1514
175306,972,1498
175327,965,1493
175356,988,1513
175377,976,1521
175406,1010,1498
175427,970,1460
175456,980,1378
175477,911,1350
175506,917,1301
175527,870,1274
175556,875,1236
175577,835,1216
175606,872,1193
175627,843,1194
175656,891,1179
175677,867,1181
175706,879,1162
175727,855,1146
175756,872,1143
175777,840,1139
175807,826,1156
175826,811,1148
175857,810,1151
175876,822,1168
175907,813,1201
175926,840,1205
175957,810,1237
175976,868,1311
176007,902,1455
176026,1018,1605
176057,1114,1894
176076,1259,2055
176107,1338,2293
176126,1488,2450
176157,1579,2682
176176,1729,2839
176207,1747,2922
176226,1766,2940
176257,1751,3139
176276,1918,3381
176307,2090,3662
176326,2199,3792
176357,2355,4011
176378,2440,4074
176407,2434,3970
176428,2396,3902
176457,2403,3839
176478,2386,3803
176507,2401,3750
176528,2340,3649
176557,2246,3466
176578,2103,3351
176607,2033,3218
176628,1944,3147
176657,1904,3003
176678,1801,2831
176707,1661,2568
176728,1550,2412
176757,1477,2246
176778,1419,2170
176807,1415,2056
176828,1312,1954
176857,1290,1964
176878,1305,2066
176908,1415,2255
176927,1525,2401
176958,1719,2627
176977,1829,2762
177008,1996,3007
177027,2191,3232
177058,2408,3510
177077,2555,3632
177108,2579,3695
177127,2547,3513
177158,2120,3126
177177,2016,2916
177208,1943,2759
177227,1918,2673
177258,1850,2693
177277,1979,2787
177308,2065,2965
177327,2200,3110
177358,2334,3291
177377,2387,3285
177408,2268,3194
177427,2167,3058
177458,1896,2795
177479,1787,2650
177508,1665,2432
177529,1606,2371
177558,1563,2261
177579,1488,2156
177608,1429,2026
177629,1346,1907
177658,1269,1747
177679,1147,1664
177708,1128,1558
177729,1051,1482
177758,1069,1439
177779,1057,1487
177808,1188,1521
177829,1137,1443
177858,1093,1317
177879,1023,1330
177908,1051,1506
177929,1027,1138
177958,985,1012
177979,931,978
178009,888,1012
178028,872,1063
178059,909,1124
178078,983,1236
178109,1079,1236
178128,1141,1274
178159,1186,1439
178178,1345,1577
178209,1439,1720
178228,1550,1850
178259,1641,2047
178278,1822,2187
178309,1933,2332
178328,2051,2389
178359,2070,2385
178378,2134,2382
178409,2120,2472
178428,2227,2552
178459,2289,2732
178478,2360,2765
178509,2262,2586
178528,2134,2361
178559,1899,2177
178580,1843,2165
178609,1817,2166
178630,1807,2162
178659,1788,2143
178680,1786,2166
178709,1834,2239
178730,1857,2329
178759,2031,2577
178780,2087,2756
178809,2349,3084
178830,2471,3286
178859,2661,3461
178880,2650,3543
178909,2795,3700
178930,2893,3869
178959,3252,4168
178980,3405,4316
179009,3571,4367
179030,3531,4318
179059,3515,4264
179080,3503,4261
179110,3600,4433
179129,3767,4669
179160,4073,5111
179179,4298,5459
179210,4622,5994
179229,4874,6396
179260,5305,7127
179279,5687,7617
179310,6224,8296
179329,6546,8373
179360,6377,7931
179379,6237,7660
179410,6024,7532
179429,6184,7762
179460,6711,8547
179479,7250,9133
179510,8003,10079
179529,8697,10852
179560,9762,11964
179579,10393,12484
179610,10606,12473
179629,10313,11912
179660,9140,10490
179681,8244,9482
179710,6924,8108
179731,6238,7487
179760,5814,7293
179781,6140,7727
179810,6958,8463
179831,7240,8666
179860,6859,7636
179881,6126,6894
179910,5405,6307
179931,5100,6142
179960,4894,5887
179981,4727,5719
180010,4536,5484
180031,4478,5515
180060,4856,6124
180081,5275,6506
180110,5490,6503
180131,5143,6224
180161,4489,5742
180180,4193,5553
180211,4117,5452
180230,4106,5469
180261,4230,5635
180280,4334,5740
180311,4431,5956
180330,4585,6090
180361,4677,6226
180380,4818,6353
180411,5004,6620
180430,5168,6699
180461,5179,6789
180480,5312,6911
180511,5503,7191
180530,5750,7462
180561,6170,8075
180580,6653,8607
180611,7291,9367
180630,7722,9792
180661,8197,10344
180680,8509,10558
180711,8697,10781
180730,8858,10923
180761,9059,11212
180782,9302,11462
180811,9789,12018
180832,10269,12664
180861,11652,14391
180882,13006,15944
180911,15600,18816
180932,17731,21053
180961,20938,23684
180982,22109,24308
181011,22394,24151
181032,22061,23768
181061,21634,23086
181082,20969,22461
181111,20157,21692
181132,19602,20995
181161,18154,19400
181182,16972,17988
181211,14265,15281
181232,12591,13912
181261,10809,12263
181282,9699,11251
181311,8414,10494
181332,8299,10163
181362,7404,8734
181381,6867,8384
181412,6720,8298
181431,6741,8394
181462,7561,9630
181481,8274,9982
181512,8221,9776
181531,8000,9429
181562,7311,8744
181581,6824,8351
181612,6106,7848
181631,5862,7637
181662,5514,7367
181681,5453,7234
181712,5354,7093
181731,5341,6989
181762,5220,6847
181781,5224,6805
181812,5164,6786
181831,5196,6787
181862,5169,6833
181881,5246,6869
181912,5223,6839
181931,5208,6794
181962,5110,6706
181983,5030,6625
182012,4931,6508
182033,4886,6453
182062,4815,6331
182083,4732,6225
182112,4651,6093
182133,4602,6058
182162,4636,6055
182183,4584,6064
182212,4640,6124
182233,4636,6176
182262,4727,6278
182283,4734,6333
182312,4847,6459
182333,4886,6502
182362,4903,6373
182383,4786,6204
