Millis,Red,IR
-1,-1,-1
282970,95511,118495
283023,95743,118783
283072,96097,118784
283123,96231,118965
283182,96275,119011
283225,96319,118906
283276,96088,118793
283327,96107,118816
283384,95975,118737
283429,95873,118664
283480,95650,118499
283531,95334,118482
283584,95615,118987
283633,96254,118555
283684,95611,118571
283744,95672,118659
283786,95682,118630
283837,95894,118874
283888,96034,118877
283944,96154,119022
283990,96315,118997
284042,95611,118322
284103,96051,119334
284144,96543,119088
284195,96420,119097
284246,96967,119356
284303,96579,119480
284348,97682,119749
284399,97093,119621
284450,97621,119988
284503,97866,120038
284552,97828,120112
284603,97998,120175
284664,97938,120043
284705,97943,120045
284756,97829,120059
284807,97712,119961
284863,97710,119923
284909,97567,119776
284960,97420,119789
285011,97504,119793
285063,97496,119871
285113,97661,119852
285164,97520,119737
285224,97310,119604
285267,97141,119415
285318,96718,119247
285369,96703,119303
285424,96634,119223
285471,96543,119086
285522,96333,118998
285583,96214,118974
285624,96174,118930
285675,96203,119033
285726,96331,119172
285783,96616,119384
285828,96905,119578
285879,97147,119651
285930,97444,119844
285983,97593,119999
286032,97729,119898
286083,97430,119786
286143,97339,119627
286185,97004,119449
286236,96793,119392
286287,96623,119327
286343,96696,119298
286389,96703,119494
286440,96873,119515
286491,96921,119533
286543,96931,119497
286594,96878,119489
286645,96896,119492
286704,96831,119478
286747,96858,119503
286798,96908,119507
286849,96931,119468
286904,96794,119453
286951,96837,119493
287002,96870,119505
287063,96873,119515
287104,96899,119481
287155,96779,119404
287206,96705,119411
287263,96753,119420
287308,96724,119399
287359,96697,119387
287410,96658,119355
287464,96652,119414
287512,96744,119470
287563,96944,119539
287623,96863,119513
287665,96894,119522
287716,96862,119485
287768,96744,119435
287823,96720,119375
287870,96617,119290
287921,96523,119277
287972,96575,119297
288023,96546,119315
288074,96560,119293
288125,96575,119321
288184,96638,119430
288227,96801,119530
288278,96956,119606
288329,97009,119625
288384,96974,119570
288431,96917,119579
288482,96911,119573
288543,96932,119564
288584,96865,119477
288635,96762,119451
288686,96571,119300
288744,96503,119253
288788,96475,119275
288839,96417,119208
288890,96297,119141
288944,96303,119180
288993,96338,119192
289044,96348,119260
289105,96411,119272
289146,96443,119265
289197,96479,119280
289248,96385,119240
289305,96423,119309
289350,96504,119313
289401,96486,119266
289452,96511,119313
289505,96506,119348
289554,96569,119385
289605,96522,119374
289664,96628,119404
289707,96553,119324
289758,96478,119284
289809,96625,119466
289865,96773,119557
289911,96885,119656
289962,97013,119650
290024,96954,119637
290065,96931,119611
290115,96853,119376
290166,94205,117254
290224,92681,116754
290269,91928,116531
290320,91530,118445
290371,91519,119353
290424,91266,119219
290473,91203,119142
290524,91232,119001
290585,91295,118881
290626,91315,118299
290677,91069,117156
290728,90895,116999
290785,94661,118519
290830,95713,119348
290881,97200,120261
290932,99031,120822
290985,97582,120290
291034,98590,121098
291085,97311,119023
291145,94537,117899
291187,93863,117296
291238,92278,117944
291289,92343,119466
291345,92212,119515
291391,92122,119500
291443,92063,119335
291504,92011,119033
291545,91863,118198
291596,91469,117241
291647,91839,117656
291704,95421,119229
291749,97129,120924
291800,99555,121439
291851,97551,121690
291904,100289,121921
291954,99830,121074
292005,95365,118704
292064,94902,117697
292107,92727,117763
292158,92590,119124
292209,92531,119532
292265,92469,119631
292311,92418,119657
292362,92358,119608
292413,92306,119282
292465,92141,118448
292515,91719,117546
292566,91412,116584
292624,92648,118156
292669,94896,118835
292720,96769,120844
292771,100420,122050
292824,99121,119718
292874,97873,121426
292925,99937,121785
292984,100072,121891
293028,99869,121283
293079,98258,119804
293130,95181,117952
293185,93090,117888
293232,92820,119361
293283,92758,119864
293345,92700,119849
293385,92661,119778
293436,92596,119709
293487,92478,119002
293545,92185,118078
293589,91844,117101
293640,91632,116689
293691,92914,118384
293745,96240,120635
293794,99202,121855
293845,99889,119416
293906,97135,121960
293947,100820,122304
293999,100402,121962
294051,100471,122135
294106,100264,121935
294155,100120,121986
294207,99921,121043
294266,97650,119178
294309,95459,118904
294360,94513,117828
294411,93061,119275
294465,93107,119633
294513,93056,119829
294564,92955,119990
294626,92894,119979
294666,92868,119942
294718,92845,119781
294769,92634,118841
294826,92209,117631
294871,91917,116797
294922,92645,119178
294973,95906,120121
295026,98600,121567
295075,100058,122321
295127,97387,119919
295186,98331,121295
295229,99361,121322
295280,99164,121275
295331,99269,120910
295386,97779,119818
295433,96218,118966
295484,93963,118101
295546,93318,119702
295586,93351,120067
295637,93241,120179
295688,93132,120103
295746,93069,120065
295790,93042,119980
295841,93021,119670
295893,92259,117302
295946,91974,117395
295995,94410,118636
296046,98592,121666
296105,100287,122377
296149,101388,123093
296201,101930,122098
296253,100556,122626
296306,101112,122573
296357,101288,122662
296409,101676,122639
296465,100760,121443
296513,98388,119966
296564,94980,117908
296626,93410,119496
296666,93543,120109
296718,93432,120208
296769,93313,120175
296826,93229,120110
296871,93211,120059
296922,93188,119889
296973,92614,117907
297026,92217,116905
297075,92484,118782
297126,98199,121782
297185,101495,123408
297229,102817,123196
297281,99516,120137
297332,102193,122666
297385,100920,122341
297436,101232,122490
297488,99451,120303
297546,96757,120054
297590,95990,117974
297641,93445,119022
297693,93509,120098
297746,93430,120102
297795,93394,120107
297846,93279,119946
297905,93262,119873
297948,93227,119431
297999,92889,118328
298050,92152,116777
298105,94189,119577
298152,97794,121407
298203,101025,123390
298255,100538,118941
298307,97841,122665
298358,102117,122814
298410,102187,123277
298466,102739,123442
298514,102691,123264
298566,103091,123743
298626,103283,123679
298671,103205,123800
298723,103509,123907
298775,102817,123202
298827,102329,122980
298879,102123,123017
298931,102328,123161
298986,102567,123233
299035,102222,122749
299087,101887,122812
299147,102033,122960
299191,102250,123058
299244,102283,123083
299296,102564,123270
299348,102720,123279
299400,102638,123244
299452,102668,123185
299507,102619,123216
299556,102722,123253
299608,102775,123309
299666,102907,123361
299712,102918,123321
299764,102936,123369
299826,103017,123402
299869,103054,123404
299921,103091,123466
299973,103183,123471
300026,103129,123385
300077,103040,123345
300129,102952,123293
300186,102929,123284
300233,102882,123234
300285,102745,123121
300347,102761,123150
300389,102781,123095
300441,102574,122841
300494,102095,122661
300547,102122,122711
300598,102209,122730
300650,102150,122652
300707,102091,122622
300754,102060,122639
300806,102203,122700
300867,102248,122709
300910,102224,122648
300962,102171,122646
301014,102180,122660
301066,102195,122617
301119,102168,122600
301171,102162,122557
301226,102137,122466
301275,101993,122405
301327,101879,122319
301386,101825,122291
301431,101825,122287
301483,101781,122263
301535,101760,122222
301587,101821,122317
301639,102007,122426
301691,102065,122376
301747,101999,122297
301796,101874,122237
301848,101674,122016
301907,101527,121993
301952,101615,121992
302004,101509,121878
302056,101420,121856
302108,101377,121742
302160,101243,121663
302212,101204,121654
302266,101133,121600
302316,101108,121579
302369,101030,121516
302426,100975,121458
302473,100932,121446
302525,100986,121462
302586,100944,121421
302629,100908,121395
302681,100882,121385
302733,100886,121359
302787,100880,121333
302837,100860,121281
302889,100883,121301
302947,100893,121291
302994,100903,121289
303046,100873,121264
303107,100886,121276
303150,100879,121243
303202,100869,121196
303254,100760,121129
303307,100748,121156
303358,100848,121235
303410,101047,121311
303466,101026,121309
303514,101042,121274
303566,101033,121229
303626,100987,121189
303671,100957,121179
303723,100975,121174
303775,100717,120951
303827,100651,120890
303879,100616,120884
303931,100406,120710
303986,100279,120606
304035,100211,120595
304087,100169,120540
304147,100153,120497
304191,100029,120436
304244,99965,120411
304295,99970,120398
304346,99948,120407
304397,99947,120398
304448,99856,120303
304507,99807,120246
304550,99774,120226
304601,99721,120192
304652,99673,120150
304707,99721,120127
304754,99676,120134
304805,99634,120059
304866,99602,120038
304907,99585,120001
304958,99539,120009
305009,99510,119980
305067,99529,119961
305111,99519,119951
305162,99441,119940
305213,99320,119845
305267,99294,119822
305315,99279,119803
305366,99139,119759
305428,99067,119674
305469,99024,119634
305520,98933,119551
305571,98769,119467
305628,98753,119465
305673,98755,119415
305724,98799,119429
305775,98651,119355
305828,98587,119333
305877,98566,119359
305928,98543,119298
305987,98532,119261
306030,98482,119263
306081,98506,119272
306132,98527,119277
306187,98500,119252
306234,98436,119238
306285,98441,119225
306347,98456,119255
306388,98467,119266
306438,98481,119283
306489,98488,119241
306547,98401,119181
306591,98339,119154
306642,98305,119119
306694,98305,119141
306747,98358,119171
306796,98381,119176
306847,98353,119171
306908,98358,119168
306949,98336,119157
307000,98324,119164
307051,98294,119110
307108,98254,119085
307153,98247,119086
307204,98199,119074
307255,98216,119061
307308,98169,119048
307357,98165,119084
307408,98144,119038
307467,98151,119039
307510,98118,119021
307561,98074,118965
307612,97990,118932
307668,97943,118905
307714,97931,118888
307765,97968,118903
307827,97929,118903
307868,97921,118894
307919,97885,118873
307970,97886,118876
308027,97870,118881
308072,97885,118882
308123,97882,118854
308174,97858,118872
308227,97855,118862
308276,97838,118844
308327,97821,118837
308388,97811,118863
308429,97847,118866
308480,97896,118900
308531,97831,118815
308588,97793,118819
308633,97795,118790
308684,97824,118840
308735,97954,118934
308787,97969,118918
308837,97943,118927
308888,97935,118880
308948,97902,118878
308990,97902,118871
309041,97879,118868
309092,97866,118844
309148,97829,118819
309195,97805,118811
309246,97792,118799
309307,97771,118803
309348,97773,118786
309399,97704,118733
309450,97605,118673
309507,97579,118679
309552,97573,118661
309603,97592,118642
309654,97528,118607
309707,97494,118611
309756,97499,118608
309807,97453,118559
309868,97422,118549
309909,97409,118555
309960,97431,118568
310011,97335,118546
310069,97355,118533
310113,97356,118516
310164,97346,118679
310215,97252,118474
310269,97266,118486
310317,97272,118488
310369,97261,118498
310428,97291,118488
310471,97264,118472
310522,97256,118463
310573,97240,118464
310628,97245,118477
310675,97258,118450
310726,97199,118418
310789,97157,118415
310828,97158,118436
310879,97152,118415
310930,97174,118414
310989,97156,118423
311032,97191,118444
311083,97189,118446
311134,97258,118480
311188,97337,118508
311236,97381,118559
311287,97429,118584
311349,97459,118606
311389,97485,118585
311440,97393,118508
311491,97273,118472
311549,97268,118481
311594,97303,118466
311645,97253,118454
311696,97232,118464
311749,97254,118481
311798,97261,118483
311849,97297,118471
311908,97255,118411
311951,97163,118385
312002,97218,118456
312053,97411,118561
312108,97418,118524
312155,97368,118510
312206,97344,118510
312257,97396,118500
312308,97354,118513
312359,97367,118510
312410,97378,118505
312468,97360,118486
312512,97344,118513
312563,97364,118542
312614,97395,118624
312668,97634,118722
312716,97696,118708
312767,97542,118622
312829,97528,118616
312870,97548,118619
312921,97523,118568
312972,97432,118557
313029,97448,118570
313074,97449,118537
313125,97425,118519
313176,97383,118496
313229,97326,118478
313278,97267,118433
313329,97299,118488
313388,97324,118467
313431,97306,118463
313482,97295,118473
313533,97265,118445
313588,97252,118415
313635,97199,118426
313686,97210,118378
313737,96837,118137
313789,96682,118044
313839,96552,117969
313890,96488,117946
313948,96454,117940
313992,96436,117922
314044,96438,117963
314095,96369,117903
314148,96367,117873
314197,96338,117872
314248,96294,117841
314309,96295,117837
314350,96290,117851
314401,96286,117841
314452,96249,117817
314509,96250,117817
314554,96221,117795
314605,96251,117836
314656,96204,117798
314709,96228,117795
314758,96175,117788
314809,96130,117742
314869,96150,117728
314911,96150,117746
314962,96120,117770
315013,96104,117750
315069,96146,117761
315115,96130,117763
315166,96102,117762
315217,96101,117763
315269,96123,117755
315320,96121,117746
315371,96070,117760
315430,96078,117748
315473,96061,117748
315524,96091,117771
315575,96058,117751
315630,96063,117759
315677,96052,117739
315728,96026,117724
315789,96042,117717
315830,95999,117701
315881,96009,117688
315932,96030,117710
315989,96029,117710
316034,95991,117702
316085,96023,117718
316136,95995,117705
316190,95995,117703
316238,95986,117712
316289,95995,117718
316349,96012,117732
316391,96014,117746
316442,96015,117730
316494,96006,117744
316549,96040,117738
316596,96019,117740
316647,96021,117758
316698,96074,117778
316749,96093,117791
316800,96090,117771
316851,96096,117805
316910,96129,117814
316953,96168,117845
317004,96190,117899
317055,96344,117971
317110,96423,118029
317157,96510,118079
317208,96639,118125
317269,96671,118127
317310,96669,118147
317361,96711,118188
317412,96821,118244
317470,96857,118262
317514,96850,118285
317565,96847,118274
317616,96812,118236
317670,96754,118203
317719,96690,118169
317770,96684,118190
317829,96728,118210
317872,96735,118221
317923,96778,118248
317974,96787,118249
318029,96772,118236
318076,96765,118224
318127,96744,118235
318178,96757,118252
318229,96783,118259
318280,96783,118248
318331,96819,118255
318390,96794,118276
318433,96815,118268
318484,96783,118254
318535,96655,118159
318589,96632,118166
318637,96634,118154
318688,96672,118173
318750,96693,118208
318790,96712,118185
318841,96738,118206
318892,96799,118270
318950,96832,118302
318995,96899,118380
319046,96958,118408
319097,97054,118444
319150,97094,118456
319199,97103,118464
319250,97099,118473
319309,97100,118468
319352,97112,118456
319403,97106,118480
319454,96986,118394
319509,96966,118375
319556,96986,118384
319607,96972,118387
319658,96969,118402
319709,97005,118406
319760,97009,118405
319811,97015,118416
319869,97025,118412
319913,97011,118416
319964,97040,118429
320015,97011,118404
320069,96989,118414
320117,96993,118417
320168,96996,118401
320230,97000,118420
320271,96971,118401
320322,96976,118410
320373,96962,118387
320430,96919,118370
320475,96893,118346
320526,96828,118305
320577,96856,118355
320630,96919,118361
320679,96890,118360
320730,96886,118368
320791,96889,118379
320832,96926,118363
320883,96888,118373
320934,96866,118354
320991,96854,118359
321036,96898,118358
321087,96848,118337
321138,96829,118344
321190,96874,118356
321240,96877,118337
321291,96857,118338
321351,96846,118334
321393,96809,118314
321445,96766,118269
321496,96682,118230
321551,96671,118244
321598,96686,118239
321649,96721,118269
321710,96725,118263
321751,96700,118246
321802,96695,118259
321853,96680,118241
321910,96670,118246
321955,96660,118266
322006,96665,118222
322057,96582,118184
322110,96553,118180
322159,96539,118178
322210,96549,118186
322270,96540,118164
322312,96493,118126
322363,96420,118091
322414,96262,117980
322470,96223,117970
322516,96210,117974
322567,96185,117961
322618,96169,117940
322670,96128,117924
322721,96104,117898
322772,96073,117901
322831,96064,117912
322874,96049,117903
322925,96061,117893
322976,96053,117910
323031,96060,117918
323078,96054,117906
323129,96046,117924
323190,96058,117934
323231,96055,117921
323282,96077,117925
323333,95981,117857
323390,95955,117836
323435,95924,117851
323486,95918,117815
323537,95961,117833
323591,95939,117846
323639,95943,117841
323690,95952,117863
323750,95951,117851
323792,95937,117843
323843,95949,117866
323895,95972,117875
323950,95959,117868
323997,95963,117861
324048,95967,117876
324099,95963,117863
324150,95958,117870
324201,95938,117852
324252,95932,117847
324311,95887,117819
324354,95830,117782
324405,95816,117780
324456,95835,117804
324511,95886,117833
324558,95866,117825
324609,95867,117847
324670,95936,117871
324711,95960,117860
324762,95948,117894
324813,95987,117895
324871,95998,117900
324915,96019,117926
324966,95993,117912
325017,96023,117934
325071,96068,117984
325120,96124,118009
325171,96132,118052
325232,96155,118044
325273,96198,118024
325324,96204,118045
325375,96214,118083
325432,96250,118111
325477,96278,118114
325528,96317,118104
325579,96244,118071
325632,96202,118072
325681,96224,118067
325732,96129,118014
325791,96132,118012
325834,96100,118022
325885,96106,118000
325936,96046,117963
325992,96012,117959
326038,95968,117930
326089,95936,117916
326151,95913,117886
326192,95863,117854
326242,95827,117827
326293,95726,117778
326351,95708,117775
326396,95722,117784
326447,95713,117782
326498,95728,117794
326551,95732,117785
326600,95734,117794
326651,95717,117804
326712,95718,117792
326753,95726,117802
326804,95723,117796
326855,95731,117796
326912,95696,117792
326957,95702,117766
327008,95679,117781
327059,95700,117779
327112,95673,117780
327161,95682,117800
327212,95589,117704
327272,95557,117686
327314,95548,117689
327365,95537,117698
327416,95557,117700
327472,95559,117715
327518,95553,117717
327570,95562,117722
327631,95554,117717
327672,95544,117712
327723,95562,117731
327774,95550,117727
327831,95542,117728
327876,95556,117720
327927,95536,117706
327978,95534,117731
328031,95545,117710
328080,95523,117723
328131,95500,117676
328192,95448,117660
328233,95420,117638
328284,95404,117638
328335,95441,117652
328391,95434,117670
328437,95467,117655
328488,95464,117673
328539,95483,117685
328591,95467,117671
328641,95462,117710
328692,95475,117685
328752,95492,117701
328795,95506,117713
328846,95496,117711
328897,95519,117722
328952,95519,117714
328999,95515,117714
329050,95521,117718
329111,95480,117697
329152,95494,117699
329203,95473,117680
329254,95373,117621
329311,95361,117603
329356,95362,117620
329407,95366,117622
329458,95376,117622
329511,95366,117631
329560,95393,117646
329611,95330,117604
329671,95338,117622
329713,95369,117625
329764,95386,117644
329815,95382,117663
329873,95375,117656
329917,95379,117649
329968,95437,117683
330020,95401,117698
330073,95395,117683
330122,95373,117702
330173,95333,117634
330232,95305,117614
330275,95254,117595
330326,95236,117592
330377,95272,117618
330432,95299,117629
330479,95299,117593
330530,95251,117620
330593,95261,117646
330632,95334,117634
330683,95264,117616
330734,95230,117618
330793,95261,117638
330836,95316,117637
330887,95261,117600
330938,95244,117623
330992,95295,117661
331040,95310,117639
331091,95222,117621
331153,95247,117635
331193,95272,117633
331245,95251,117593
331296,95159,117551
331353,95142,117566
331398,95152,117559
331449,95190,117580
331500,95190,117580
331553,95174,117600
331602,95191,117622
331653,95190,117597
331712,95214,117607
331755,95211,117624
331806,95245,117633
331857,95227,117631
331912,95242,117642
331959,95224,117628
332010,95254,117641
332072,95235,117629
332112,95214,117625
332163,95199,117642
332214,95175,117590
332272,95135,117570
332316,95102,117558
332367,95093,117552
332418,95132,117588
332472,95136,117581
332521,95131,117595
332572,95132,117600
332633,95119,117594
332674,95144,117611
332725,95146,117615
332776,95147,117615
332833,95139,117611
332878,95132,117597
332929,95130,117601
332980,95121,117598
333033,95101,117594
333082,95115,117625
333133,95069,117550
333192,95027,117529
333235,94997,117504
333286,94979,117510
333337,94994,117528
333393,94998,117549
333439,95004,117522
333490,95029,117528
333552,94999,117534
333593,94977,117519
333643,94963,117529
333695,94977,117543
333752,94982,117536
333797,94979,117541
333848,94966,117526
333899,94963,117548
333952,94993,117562
334001,94986,117557
334052,94955,117558
334113,94950,117547
334154,94957,117522
334205,94948,117540
334256,94989,117574
334313,94999,117584
334358,95035,117576
334409,95025,117603
334460,95064,117627
334512,95086,117630
334562,95093,117640
334613,95078,117635
334673,95069,117647
334715,95074,117647
334766,95074,117633
334817,95075,117632
334873,95057,117629
334919,95049,117617
334971,95071,117623
335032,95013,117573
335073,94978,117580
335124,94963,117569
335175,94948,117573
335232,94976,117581
335277,94975,117572
335328,94969,117559
335379,94983,117575
335432,94967,117590
335481,94992,117588
335532,94996,117599
335593,94997,117593
335634,94980,117594
335685,95004,117631
335736,95032,117636
335792,95042,117648
335838,95037,117616
335889,95002,117603
335940,94909,117531
335992,94861,117514
336042,94839,117516
336093,94848,117527
336153,94891,117539
336196,94913,117562
336247,94886,117564
336298,94967,117604
336353,94977,117581
336400,94987,117580
336451,95025,117618
336512,95016,117615
336553,95026,117625
336604,95030,117630
336655,94979,117581
336714,94963,117572
336757,94994,117601
336808,94951,117588
336859,94943,117598
336914,94924,117591
336961,94956,117590
337012,94914,117603
337074,94917,117600
337114,94949,117580
337165,94948,117593
337216,94927,117599
337274,94915,117599
337318,94926,117594
337369,94958,117572
337421,94917,117578
337474,94865,117552
337523,94821,117522
337574,94782,117492
337633,94796,117488
337676,94794,117515
337727,94814,117543
337778,94816,117520
337833,94807,117520
337880,94790,117516
337931,94827,117520
337994,94797,117517
338033,94800,117543
338084,94785,117518
338135,94799,117520
338194,94755,117504
338237,94757,117488
338288,94727,117471
338339,94707,117464
338393,94704,117465
338441,94715,117476
338492,94692,117470
338554,94701,117455
338594,94708,117461
338646,94702,117471
338697,94674,117444
338754,94676,117464
338799,94681,117447
338850,94676,117461
338901,94682,117474
338954,94670,117458
339003,94664,117463
339054,94685,117485
339113,94683,117490
339156,94676,117485
339207,94682,117481
339258,94598,117435
339313,94597,117422
339360,94587,117429
339411,94603,117435
339462,94622,117439
339514,94603,117478
339564,94607,117430
339615,94642,117469
339673,94644,117470
339717,94631,117453
339768,94616,117488
339819,94620,117465
339873,94616,117458
339922,94642,117497
339973,94737,117538
340034,94745,117541
340075,94738,117545
340126,94726,117545
340177,94714,117521
340234,94697,117510
340279,94700,117497
340330,94706,117529
340381,94693,117524
340434,94708,117538
340483,94710,117543
340534,94706,117533
340593,94718,117536
340636,94736,117544
340687,94722,117562
340738,94726,117560
340794,94768,117555
340840,94781,117600
340891,94768,117598
340942,94777,117591
340994,94806,117616
341044,94827,117617
341096,94727,117578
341155,94711,117563
341198,94707,117582
341249,94748,117592
341300,94694,117588
341355,94709,117591
341402,94703,117590
341453,94734,117606
341514,94759,117605
341555,94735,117612
341606,94780,117605
341657,94808,117641
341714,94799,117642
341759,94764,117651
341810,94824,117659
341861,94816,117648
341915,94790,117668
341963,94803,117669
342014,94799,117653
342074,94776,117608
342116,94724,117617
342167,94697,117599
342218,94699,117615
342274,94739,117624
342321,94743,117637
342372,94724,117627
342423,94736,117624
342474,94741,117629
342525,94732,117622
342576,94746,117646
342635,94729,117635
342678,94734,117647
342729,94734,117651
342780,94731,117646
342835,94739,117655
342882,94743,117656
342933,94753,117650
342994,94744,117654
343035,94722,117588
343086,94684,117603
343137,94674,117602
343195,94647,117607
343239,94664,117652
343290,94676,117622
343341,94677,117625
343395,94667,117632
343443,94661,117623
343494,94672,117633
343554,94665,117638
343597,94662,117640
343648,94664,117652
343699,94665,117658
343754,94685,117666
343801,94690,117659
343852,94681,117656
343903,94688,117683
343954,94701,117674
344005,94672,117636
344056,94628,117605
344115,94592,117607
344158,94596,117599
344209,94601,117618
344260,94648,117629
344315,94640,117661
344362,94628,117617
344413,94617,117608
344475,94580,117616
344515,94584,117599
344566,94590,117611
344617,94627,117614
344675,94596,117615
344719,94600,117665
344771,94600,117622
344822,94596,117620
344875,94587,117607
344924,94554,117600
344975,94533,117589
345034,94510,117553
345077,94479,117533
345128,94472,117547
345179,94467,117562
345234,94491,117567
345281,94512,117585
345332,94502,117584
345383,94462,117564
345434,94480,117573
345485,94510,117567
345536,94499,117593
345594,94519,117593
345638,94537,117610
345689,94557,117626
345740,94549,117647
345796,94552,117637
345842,94544,117644
345893,94515,117632
345955,94502,117600
345996,94451,117571
346047,94434,117574
346098,94467,117595
346155,94443,117555
346200,94398,117567
346251,94392,117556
346302,94434,117582
346355,94460,117597
346404,94476,117611
346455,94483,117600
346516,94422,117590
346557,94455,117593
346608,94455,117613
346659,94452,117606
346716,94428,117562
346761,94343,117508
346812,94278,117539
346863,94566,117726
346915,94751,117824
346965,94851,117865
347016,94756,117768
347076,94626,117690
347118,94538,117662
347169,94514,117646
347221,94547,117687
347276,94543,117659
347323,94482,117637
347374,94445,117627
347435,94427,117615
347476,94449,117613
347527,94438,117621
347578,94412,117584
347635,94406,117601
347680,94450,117652
347731,94478,117649
347782,94537,117686
347835,94535,117685
347884,94514,117673
347935,94418,117632
347996,94397,117615
348037,94400,117590
348088,94376,117599
348139,94401,117628
348195,94436,117653
348241,94469,117667
348292,94464,117670
348343,94519,117691
348395,94500,117682
348446,94489,117660
348497,94432,117643
348556,94431,117660
348599,94448,117687
348650,94484,117686
348701,94478,117665
348756,94459,117662
348803,94473,117676
348854,94471,117689
348915,94502,117672
348956,94484,117695
349007,94531,117724
349058,94495,117689
349115,94463,117653
349160,94451,117688
349211,94496,117709
349262,94527,117718
349316,94528,117724
349364,94570,117755
349415,94601,117789
349475,94614,117780
349517,94637,117770
349568,94620,117760
349619,94573,117744
349675,94599,117783
349722,94665,117779
349773,94726,117831
349824,94747,117839
349875,94755,117868
349926,94790,117917
349977,94872,117938
350036,94909,117924
350079,94927,117969
350130,94915,117977
350181,94954,118006
350236,95041,118034
350283,94999,118026
350334,94968,117991
350397,94839,117896
350436,94721,117791
350487,94600,117796
350538,94650,117820
350596,94677,117816
350640,94657,117796
350691,94621,117793
350742,94702,117866
350796,94714,117812
350844,94658,117799
350896,94612,117812
350957,94641,117820
350998,94653,117809
351049,94622,117799
351100,94602,117773
351157,94571,117778
351202,94549,117750
351253,94546,117743
351304,94562,117744
351357,94494,117720
351406,94441,117708
351457,94416,117673
351516,94400,117658
351559,94356,117664
351610,94387,117678
351661,94390,117680
351717,94372,117675
351763,94402,117684
351814,94474,117721
351876,94464,117730
351917,94453,117714
351967,94446,117729
352018,94487,117749
352076,94478,117734
352120,94447,117732
352172,94461,117728
352223,94453,117719
352276,94445,117722
352325,94446,117723
352376,94371,117673
352437,94350,117663
352478,94362,117683
352529,94374,117689
352580,94394,117713
352637,94381,117693
352682,94376,117678
352733,94364,117700
352784,94385,117708
352837,94370,117717
352886,94390,117736
352937,94380,117728
352997,94356,117703
353039,94307,117652
353090,94253,117626
353141,94218,117619
353197,94210,117624
353243,94200,117604
353294,94216,117605
353356,94169,117553
353397,94068,117526
353448,94009,117512
353499,94059,117531
353556,94078,117549
353601,94087,117550
353652,94102,117557
353703,94129,117586
353756,94149,117596
353805,94146,117606
353856,94168,117617
353917,94197,117626
353958,94230,117660
354009,94295,117684
354060,94257,117672
354117,94273,117687
354162,94280,117679
354213,94288,117685
354264,94204,117636
354316,94168,117627
354366,94148,117619
354417,94121,117613
354477,94168,117612
354519,94173,117622
354570,94180,117674
354622,94445,117828
354677,94505,117823
354724,94533,117878
354775,94672,117923
354836,94641,117927
354877,94644,117898
354928,94530,117837
354979,94469,117828
355036,94475,117814
355081,94466,117811
355132,94388,117780
355183,94339,117767
355238,94304,117735
355285,94326,117728
355336,94253,117717
355397,94272,117726
355438,94253,117734
355489,94321,117758
355540,94317,117775
355598,94314,117767
355642,94290,117741
355693,94317,117814
355744,94303,117766
355798,94295,117776
355847,94309,117775
355898,94307,117755
355957,94290,117722
356000,94245,117719
356051,94236,117727
356102,94243,117748
356157,94280,117747
356204,94289,117757
356255,94276,117759
356306,94317,117784
356357,94332,117819
356408,94327,117775
356459,94333,117791
356518,94314,117791
356561,94338,117800
356612,94308,117799
356663,94268,117753
356717,94261,117736
356765,94272,117774
356816,94349,117816
356878,94350,117804
356918,94354,117825
356969,94372,117828
357020,94359,117819
357078,94367,117816
357123,94378,117828
357174,94421,117859
357225,94447,117873
357278,94441,117870
357327,94410,117836
357378,94273,117740
357437,94216,117730
357480,94210,117708
357531,94221,117751
357582,94279,117801
357637,94308,117792
357684,94295,117803
357735,94303,117783
357786,94314,117808
357837,94303,117791
357888,94248,117726
357939,94214,117766
357997,94266,117807
358041,94309,117782
358092,94238,117755
358143,94008,117604
358197,93991,117595
358245,94014,117612
358297,94011,117597
358358,93984,117588
358399,93965,117565
358450,93910,117526
358501,93783,117438
358558,93728,117431
358603,93709,117413
358654,93659,117400
358705,93632,117371
358758,93621,117360
358807,93594,117346
358858,93559,117325
358917,93571,117340
358960,93591,117336
359011,93597,117353
359062,93585,117342
359118,93608,117346
359164,93602,117359
359215,93576,117342
359266,93612,117338
359318,93604,117354
359368,93608,117336
359419,93567,117327
359477,93573,117320
359522,93534,117294
359573,93529,117319
359624,93443,117237
359677,93452,117244
359726,93464,117265
359777,93470,117261
359838,93491,117252
359879,93423,117228
359930,93383,117196
359981,93349,117192
360038,93341,117199
360083,93299,117184
360134,93349,117202
360185,93279,117184
360238,93305,117178
360287,93298,117217
360338,93330,117206
360398,93378,117221
360440,93393,117220
360491,93382,117248
360542,93565,117374
360598,93672,117264
360644,92838,116665
360695,92031,116409
360747,91273,117184
360798,91493,118723
360849,91341,118865
360900,91078,118831
360959,91059,118705
361002,91069,118337
361053,90950,117369
361104,90402,115835
361159,92228,117607
361206,94741,118959
361257,95763,118521
361318,93699,117403
361359,93475,117787
361410,94287,118147
361461,95067,118178
361518,93992,117639
361563,93180,117293
361614,92496,116968
361665,91997,119258
361719,91805,119308
361767,91697,119249
361818,91656,118868
361878,91514,118113
361920,91150,116923
361972,90856,116137
362023,94020,118563
362078,95748,119805
362125,97450,120223
362176,97456,119890
362227,94260,118047
362278,94874,118946
362329,96008,119321
362380,95859,118850
362439,95081,118616
362482,94877,118210
362533,94567,117738
362584,92299,118733
362639,92382,119386
362686,92257,119471
362737,92131,119396
362799,92081,119238
362839,92008,118773
362890,91754,117870
362941,91227,116749
362999,94062,118882
363043,96482,120460
363094,98551,121364
363145,98100,120273
363199,96965,119591
363248,96074,118508
363299,95060,118592
363358,94968,118593
363401,94846,118444
363452,94724,118439
363503,95051,119001
363558,94292,117611
363605,92610,118217
363656,92663,119211
363707,92546,119577
363760,92469,119516
363809,92454,119326
363860,92037,117880
363919,91700,116862
363962,91586,116747
364013,92583,117761
364064,96507,119746
364120,96205,119066
364166,95353,119298
364217,96607,119053
364279,95200,118459
364320,94504,118922
364370,96059,119266
364422,96177,119487
364479,96353,119457
364524,96163,119481
364575,95914,119483
364626,93076,118023
364679,92888,119363
364728,92931,119818
364779,92717,119823
364840,92658,119653
364881,92615,119135
364932,92223,117720
364983,93194,118920
365040,96000,120022
365085,97448,119418
365136,95220,118839
365187,95796,118844
365239,94618,118240
365289,94374,118436
365340,94071,118302
365400,94580,118595
365442,95453,119089
365493,95869,119470
365544,94818,117866
365600,93050,119119
365647,93137,119756
365698,92944,119887
365759,92927,119837
365800,92877,119615
365851,92745,118976
365902,91973,116782
365959,92422,118208
366004,97128,120796
366055,99076,122138
366106,99998,121946
366159,99561,120775
366208,97253,120369
366259,99787,121958
366320,100246,121944
366362,99894,121404
366413,98513,120523
366464,97934,119073
366520,93696,118254
366566,93256,119740
366617,93261,120080
366668,93077,120068
366720,93030,119964
366770,92956,119550
366822,92153,116997
366879,92178,118123
366924,96786,120530
366975,98681,122050
367026,101628,122473
367079,100804,121738
367130,98125,119942
367181,99908,122041
367240,100574,122151
367284,99834,120997
367335,98521,120491
367386,97144,117985
367439,93291,118994
367488,93440,119995
367539,93177,120118
367601,93145,120062
367641,93133,119927
367692,93069,119600
367743,92265,117145
367801,92081,117913
367845,97321,120932
367896,99343,122489
367948,101749,122470
368001,100993,121655
368052,97576,118501
368103,97376,119966
368160,97687,120310
368205,97859,120038
368256,97223,119787
368307,98561,120526
368360,95441,117894
368409,93448,118620
368460,93519,119881
368521,93405,119952
368562,93370,119901
368613,93284,119731
368664,92829,117938
368720,92386,116807
368766,92618,118628
368817,97080,120157
368868,101227,122718
368920,101413,121988
368973,99767,120872
369024,96726,120345
369081,98619,120799
369126,99076,120880
369177,99349,119952
369228,98358,120141
369281,98010,120158
369330,98298,120458
369381,97752,120391
369440,99494,121607
369483,100844,122471
369535,102224,123189
369587,102694,123033
369641,102451,122812
369691,102153,122808
369743,102534,123000
369801,102654,123200
369848,102925,123208
369900,102836,123137
369961,102781,123057
370004,102703,123004
370056,102717,122934
370108,102486,122724
370161,102296,122702
370212,102260,122586
370264,100758,121193
370320,99792,120745
370367,99270,120474
370418,99010,120371
370469,99292,120703
370521,99611,120900
370571,99879,121042
370623,100220,121243
370680,100340,121238
370727,100219,121125
370779,100154,121060
370840,100136,121048
370883,100240,121108
370935,100332,121116
370987,100190,121013
371040,100235,121116
371091,100421,121156
371143,100393,121069
371201,100323,121022
371248,100337,121044
371300,100327,121029
371361,100325,121020
371404,100340,121012
371456,100359,121059
371508,100305,120957
371561,100338,120953
371612,100344,120968
371664,100442,121000
371722,100488,121042
371768,100529,120990
371820,100565,121044
371882,100654,121072
371925,100645,121059
371977,100696,121084
372029,100703,121009
372082,100652,121039
372133,100690,121000
372185,100620,120921
372242,100573,120913
372289,100611,120931
372341,100682,120906
372401,100543,120828
372445,100508,120808
372498,100480,120738
372550,100478,120691
372602,100462,120683
372654,100461,120679
372706,100465,120681
372761,100515,120652
372810,100485,120651
372862,100514,120651
372921,100569,120649
372966,100583,120706
373018,100635,120740
373070,100787,120701
373123,100616,120588
373175,100534,120583
373227,100655,120576
373282,100517,120496
373331,100431,120437
373383,100502,120448
373442,100418,120318
373487,100266,120210
373539,100251,120230
373591,100345,120189
373643,100218,120112
373695,100210,120196
373748,100432,120182
373801,100240,120041
373852,100161,120026
373904,100361,120219
373961,100481,120203
374008,100398,120076
374060,100231,120031
374121,100222,120004
374164,100166,119969
374216,100109,119991
374268,100291,120007
374322,100166,119823
374373,99941,119765
374424,100223,119976
374481,100366,120022
374528,100266,119775
374580,100089,119902
374641,100356,120002
374684,100494,120033
374736,100487,120030
374788,100488,120070
374842,100646,120125
374892,100730,120154
374944,100751,120158
375002,100725,120064
375049,100610,120031
375101,100580,120005
375162,100609,120078
375205,100774,120195
375257,100790,120139
375309,100435,119856
375362,100425,119876
375413,100474,119958
375465,100516,119933
375523,100385,119757
375569,100131,119696
375621,100242,119783
375683,100247,119783
375726,100188,119715
375778,100213,119792
375830,100302,119710
375883,100155,119671
375934,100095,119626
375986,100020,119554
376043,99874,119459
376089,99796,119430
376140,99848,119472
376202,99900,119466
376243,99846,119413
376293,99755,119389
376344,99606,119272
376402,99593,119268
376446,99549,119179
376498,99324,119012
376549,99237,119176
376602,99679,119536
376651,100197,119854
376703,101022,120334
376762,101264,120463
376807,101472,120586
376859,101533,120512
376911,101226,120384
376963,101358,120513
377015,101550,120664
377067,101703,120625
377123,101605,120563
377171,101518,120508
377224,101371,120402
377283,101305,120373
377328,101296,120386
377380,101257,120340
377432,101203,120268
377484,101096,120167
377536,100971,120096
377588,100808,120012
377642,100774,119986
377692,100726,119975
377744,100620,119906
377802,100652,119950
377849,100715,119973
377901,100683,119941
377962,100644,119906
378005,100611,119898
378057,100600,119860
378109,100523,119781
378162,100484,119762
378213,100465,119748
378265,100514,119773
378323,100509,119787
378369,100492,119750
378421,100438,119713
378483,100387,119691
378526,100344,119653
378578,100333,119663
378630,100417,119715
378683,100393,119719
378734,100400,119713
378786,100374,119686
378843,100361,119657
378890,100314,119613
378942,100239,119602
379002,100275,119609
379046,100279,119594
379099,100234,119540
379151,100157,119455
379203,100089,119480
379255,100083,119448
379307,99990,119385
379362,99956,119345
379409,99949,119372
379460,99941,119381
379511,99921,119359
379564,99911,119308
379613,99910,119262
379664,99774,119239
379724,99731,119211
379766,99725,119208
379817,99770,119221
379868,99720,119173
379924,99622,119135
379970,99603,119124
380021,99591,119106
380083,99579,119093
380124,99511,119039
380175,99466,119031
380226,99446,119038
380283,99501,119064
380328,99519,119080
380379,99514,119083
380430,99701,119143
380483,99702,119140
380532,99689,119129
380583,99696,119147
380644,99688,119160
380685,99728,119141
380736,99674,119130
380787,99628,119088
380844,99584,119056
380889,99576,119047
380940,99519,119020
380991,99536,119012
381043,99501,118993
381093,99448,118961
381144,99396,118930
381204,99353,118896
381246,99295,118851
381298,99235,118782
381349,99055,118661
381404,99064,118692
381451,99112,118716
381502,99089,118674
381563,99071,118665
381604,99035,118644
381655,99047,118674
381706,99056,118651
381763,99006,118609
381808,98955,118610
381859,98979,118610
381910,98955,118613
381963,98963,118606
382012,98956,118601
382063,98921,118584
382123,98870,118542
382165,98844,118518
382216,98807,118493
382267,98711,118397
382323,98643,118360
382369,98618,118336
382420,98649,118383
382471,98695,118377
382523,98649,118352
382574,98606,118357
382625,98651,118371
382684,98664,118381
382727,98697,118394
382778,98666,118377
382829,98637,118356
382884,98665,118363
382931,98657,118362
382982,98607,118351
383043,98613,118338
383084,98595,118291
383135,98531,118247
383186,98439,118191
383243,98420,118143
383288,98372,118153
383339,98360,118145
383390,98368,118141
383444,98384,118148
383492,98389,118142
383543,98239,118039
383603,98230,118042
383645,98253,118114
383696,98369,118163
383748,98280,118083
383805,98187,118045
383850,98176,118051
383901,98261,118078
383952,98208,118049
384005,98131,117986
384054,98060,117968
384105,98003,117934
384164,98059,117952
384207,98065,117957
384258,98080,117939
384309,98020,117921
384364,98011,117926
384411,97998,117903
384462,98018,117896
384525,97996,117914
384564,98021,117902
384615,98004,117942
384666,98055,117941
384724,98035,117923
384768,98011,117930
384819,98004,117900
384870,98081,117965
384924,98127,117967
384972,98101,117936
385024,97975,117866
385085,97956,117871
385126,97954,117863
385177,97969,117863
385228,97849,117785
385285,97812,117778
385330,97826,117761
385381,97841,117784
385432,97726,117662
385485,97640,117657
385534,97677,117758
385585,97836,117737
385644,97721,117670
385687,97610,117630
385738,97625,117671
385789,96248,116708
385845,95926,116577
385891,95658,116444
385942,95585,116500
386004,95735,116643
386045,96035,116843
386095,96251,116907
386146,96425,116987
386204,96403,116949
386249,96310,116922
386300,96216,116811
386351,96265,116894
386404,96280,116892
386453,96315,116977
386504,96635,117134
386565,96669,117154
386606,96701,117170
386657,96792,117219
386708,96760,117232
386765,96886,117256
386810,96802,117153
386861,96736,116949
386912,96701,117139
386965,96687,117151
387014,96681,117145
387065,96584,117076
387125,96603,117163
387167,96803,117279
387218,96981,117398
387269,97273,117566
387325,97405,117640
387371,97522,117706
387422,97594,117734
387474,97677,117779
387525,97700,117817
387576,97794,117848
387627,97867,117899
387684,97867,117896
387729,97863,117892
387780,97895,117906
387831,97758,117809
387886,97681,117717
387933,97511,117615
387984,96977,117177
388045,96263,116802
388086,96019,116829
388137,96200,116979
388188,96787,117357
388245,96916,117224
388290,96417,116985
388341,96551,117198
388392,96567,117064
388446,96276,116938
388494,96287,117013
388545,96681,117235
388605,96771,117264
388647,96819,117333
388699,96924,117406
388750,96992,117382
388805,96904,117299
388852,96744,117245
388903,96667,117202
388954,96621,117171
389005,96582,117160
389056,96584,117175
389107,96658,117181
389166,96575,117140
389209,96546,117152
389260,96602,117266
389311,96816,117320
389366,96774,117282
389413,96714,117241
389464,96669,117243
389526,96690,117256
389566,96691,117273
389617,96649,117143
389668,96483,117142
389726,96512,117191
389770,96585,117223
389821,96648,117247
389872,96627,117268
389926,96711,117323
389975,96771,117319
390026,96712,117292
390085,96675,117242
390128,96577,117186
390179,96511,117198
390230,96620,117289
390285,96672,117281
390332,96628,117223
390383,96601,117230
390434,96301,117014
390485,96189,117009
390536,96196,117005
390587,96376,117104
390646,96399,117124
390689,96419,117144
390740,96454,117180
390791,96581,117272
390845,96645,117285
390893,96592,117223
390944,96501,117179
391006,96467,117189
391046,96484,117193
391097,96527,117213
391149,96571,117255
391206,96555,117221
391251,96446,117153
391302,96246,117033
391353,96349,117123
391406,96419,117141
391455,96385,117131
391506,96417,117191
391565,96499,117202
391608,96456,117178
391659,96349,117035
391710,95715,116761
391765,95915,117036
391812,96410,117255
391863,96483,117193
391914,96137,117057
391966,96234,117116
392016,96325,117149
392067,96196,117051
392127,96088,117011
392169,96095,117042
392220,96141,117041
392271,96113,117049
392327,96113,117092
392374,96153,117079
392425,96141,117072
392486,96152,117061
392527,96150,117079
392578,96157,117097
392629,96192,117109
392686,96196,117105
392731,96199,117139
392782,96178,117098
392833,96188,117109
392886,96161,117094
392935,96106,117078
392986,96124,117085
393047,96121,117100
393088,96149,117091
393139,96134,117110
393190,96144,117112
393246,96163,117120
393292,96166,117134
393343,96180,117149
393394,96224,117168
393446,96212,117168
393496,96226,117161
393547,96230,117183
393607,96220,117184
393650,96217,117186
393701,96222,117195
393752,96221,117191
393807,96226,117200
393854,96220,117190
393905,96159,117136
393966,96119,117121
394007,96089,117103
394058,96078,117115
394109,96103,117149
394166,96115,117146
394211,96102,117159
394262,96116,117136
394313,96111,117164
394366,96121,117161
394415,96111,117164
394466,96118,117177
394526,96119,117164
394568,96126,117170
394619,96133,117185
394670,96137,117183
394726,96152,117199
394772,96141,117196
394824,96153,117192
394875,96299,117291
394926,96292,117261
394977,96154,117148
395028,95916,117071
395087,95976,117111
395130,95980,117080
395181,95873,117028
395232,95713,116941
395287,95695,116922
395334,95647,116928
395385,95736,116986
395446,95756,116992
395487,95805,117005
395538,95831,117044
395589,95910,117098
395647,95945,117083
395691,95932,117093
395742,95862,117047
395793,95755,117022
395847,95794,117022
395895,95796,117024
395946,95723,117024
396008,95742,117018
396049,95731,116966
396100,95649,116939
396151,95769,117058
396208,95800,117057
396253,95744,116990
396304,95673,116968
396355,95687,116972
396408,95632,116949
396457,95539,116920
396508,95501,116901
396567,95562,116902
396610,95505,116897
396661,95506,116902
396712,95480,116853
396767,95409,116822
396814,95394,116821
396865,95437,116838
396927,95398,116819
396967,95394,116833
397018,95392,116846
397069,95406,116835
397127,95385,116833
397171,95418,116889
397222,95489,116887
397274,95369,116796
397327,95338,116800
397376,95335,116819
397427,95387,116856
397488,95422,116911
397529,95515,116957
397580,95588,116990
397631,95564,116977
397688,95594,116985
397733,95592,116958
397784,95547,116833
397835,95528,116963
397888,95579,117020
397937,95659,117044
397988,95626,117018
398047,95626,117005
398090,95620,117022
398141,95647,117033
398192,95646,117026
398248,95636,117049
398294,95671,117047
398345,95664,117028
398407,95648,117026
398448,95669,117068
398499,95659,117039
398550,95680,117056
398607,95644,117033
398652,95614,117028
398703,95634,117051
398754,95631,117044
398807,95639,117042
398856,95622,117049
398907,95624,117042
398968,95633,117006
399009,95567,116983
399060,95512,116950
399111,95471,116929
399168,95490,116938
399213,95488,116943
399264,95512,116949
399315,95428,116937
399369,95408,116925
399417,95412,116956
399468,95463,116983
399528,95487,116987
399570,95463,116968
399621,95447,116970
399672,95382,116938
399728,95420,116951
399775,95428,116943
399826,95389,116928
399877,95419,116954
399928,95442,116962
399979,95425,116926
400030,95419,116944
400089,95429,116967
400132,95440,116971
400183,95447,117005
400234,95455,116993
400289,95451,117000
400336,95460,116991
400387,95451,116990
400448,95448,116971
400489,95406,116948
400540,95382,116935
400591,95407,116951
400649,95390,116961
400693,95389,116966
400744,95384,116962
400795,95376,116956
400849,95377,116970
400897,95398,116970
400949,95376,116954
401008,95413,116978
401051,95409,116992
401102,95407,116997
401153,95434,117036
401208,95516,117082
401255,95584,117108
401306,95603,117140
401357,95639,117166
401408,95668,117172
401459,95660,117159
401510,95610,117142
401569,95604,117137
401612,95620,117123
401663,95586,117133
401714,95615,117163
401768,95648,117173
401816,95638,117156
401867,95677,117163
401929,95654,117177
401969,95656,117166
402020,95708,117224
402071,95846,117262
402129,95782,117258
402173,95774,117299
402225,95799,117278
402276,95815,117284
402329,95833,117314
402378,95886,117352
402429,95973,117392
402488,95975,117400
402531,95974,117371
402582,95952,117369
402633,95898,117362
402688,95904,117339
402735,95922,117365
402786,95917,117379
402837,95908,117376
402888,95938,117385
402939,95982,117383
402990,95950,117388
403048,95952,117390
403092,95969,117415
403143,95990,117418
403194,95973,117429
403250,95966,117431
403296,95965,117436
403347,95989,117443
403409,95997,117455
403450,95970,117436
403501,95980,117461
403552,95948,117412
403609,95920,117400
403654,95896,117412
403705,95861,117371
403756,95900,117431
403809,95946,117421
403858,95943,117429
403909,95908,117430
403970,95909,117442
404011,95950,117429
404062,95914,117443
404113,95931,117447
404170,95940,117464
404215,95964,117465
404266,95929,117464
404317,95958,117477
404369,95962,117473
404419,95964,117464
404470,95964,117468
404530,95942,117476
404572,95925,117470
404623,95914,117445
404675,95843,117409
404730,95825,117412
404777,95842,117416
404828,95882,117452
404889,95898,117459
404930,95876,117426
404981,95877,117459
405032,95907,117469
405089,95923,117483
405134,95911,117501
405185,95922,117471
405236,95913,117484
405289,95919,117497
405338,95902,117494
405389,95908,117486
405450,95887,117490
405491,95892,117472
405542,95888,117499
405593,95861,117467
405649,95818,117424
405695,95782,117418
405746,95763,117435
405797,95796,117424
405849,95821,117453
405900,95814,117434
405951,95790,117435
406010,95758,117432
406053,95751,117439
406104,95756,117432
406155,95724,117405
406210,95703,117404
406257,95672,117397
406308,95767,117470
406369,95782,117460
406410,95761,117468
406461,95794,117476
406512,95794,117485
406569,95767,117456
406614,95703,117427
406665,95648,117357
406716,95609,117358
406770,95627,117399
406818,95673,117410
406869,95690,117410
406929,95654,117395
406971,95653,117391
407022,95659,117420
407073,95694,117418
407129,95668,117425
407176,95662,117408
407227,95663,117398
407278,95643,117408
407329,95647,117431
407380,95658,117432
407431,95643,117409
407490,95646,117405
407533,95662,117410
407584,95652,117427
407635,95584,117380
407690,95577,117360
407737,95561,117371
407788,95530,117374
407851,95554,117390
407890,95615,117380
407941,95579,117407
407992,95595,117411
408050,95611,117428
408094,95627,117422
408145,95585,117413
408196,95605,117436
408250,95626,117442
408298,95636,117434
408350,95582,117424
408411,95579,117425
408452,95589,117421
408503,95598,117417
408554,95584,117394
408611,95521,117384
408656,95501,117346
408707,95516,117361
408758,95538,117376
408811,95513,117391
408860,95524,117418
408911,95521,117393
408970,95536,117404
409013,95527,117403
409064,95538,117399
409115,95550,117404
409171,95511,117401
409217,95513,117398
409268,95521,117388
409330,95513,117409
409371,95496,117397
409421,95505,117408
409472,95499,117381
409530,95460,117356
409575,95428,117344
409626,95413,117315
409677,95437,117329
409730,95442,117360
409779,95459,117373
409830,95453,117374
409891,95448,117379
409932,95459,117381
409983,95458,117383
410034,95449,117385
410091,95440,117389
410136,95453,117362
410187,95427,117383
410238,95451,117385
410291,95434,117380
410340,95432,117393
410391,95422,117383
410451,95412,117371
410493,95383,117348
410544,95339,117318
410595,95295,117280
410651,95286,117296
410697,95319,117309
410748,95363,117336
410810,95358,117332
410851,95355,117365
410902,95362,117351
410953,95368,117365
411010,95381,117372
411055,95371,117360
411106,95390,117372
411157,95380,117369
411210,95372,117367
411259,95356,117376
411310,95360,117372
411371,95362,117363
411412,95355,117365
411463,95378,117370
411514,95319,117340
411571,95316,117319
411616,95263,117277
411667,95258,117292
411718,95230,117300
411772,95232,117305
411820,95240,117314
411871,95251,117305
411931,95244,117301
411973,95194,117295
412025,95214,117313
412076,95208,117328
412131,95248,117329
412178,95255,117317
412229,95210,117316
412280,95217,117312
412331,95232,117336
412382,95234,117299
412433,95198,117304
412492,95184,117313
412535,95209,117328
412586,95188,117344
412637,95181,117293
412692,95136,117266
412739,95107,117248
412790,95073,117245
412852,95100,117259
412892,95097,117278
412943,95129,117281
412994,95147,117292
413052,95124,117288
413096,95118,117278
413147,95141,117313
413198,95143,117313
413252,95147,117325
413301,95179,117340
413352,95141,117289
413411,95108,117271
413454,95082,117271
413505,95089,117305
413556,95148,117339
413611,95181,117342
413658,95193,117377
413709,95207,117370
413760,95087,117246
413811,94978,117209
413862,94933,117201
413913,95062,117303
413972,95073,117307
414015,95090,117303
414066,95081,117351
414117,95155,117369
414171,95169,117370
414219,95165,117367
414270,95248,117417
414332,95268,117429
414372,95266,117420
414423,95250,117414
414475,95284,117423
414532,95265,117439
414577,95271,117482
414628,95297,117462
414679,95257,117419
414732,95193,117380
414781,95162,117371
414832,95166,117392
414891,95186,117392
414934,95209,117420
414985,95185,117413
415036,95166,117404
415091,95186,117390
415138,95204,117405
415189,95194,117433
415240,95188,117413
415292,95203,117419
415342,95209,117409
415393,95175,117404
415451,95189,117403
415495,95157,117397
415546,95162,117394
415597,95079,117371
415653,95060,117369
415700,95048,117361
415751,95077,117392
415812,95108,117397
415853,95059,117361
415904,95062,117376
415955,95094,117400
416012,95097,117405
416057,95093,117410
416108,95050,117377
416159,95050,117385
416212,95054,117361
416261,94980,117344
416312,94968,117309
416373,94941,117325
416414,94968,117324
416465,94942,117330
416516,94923,117317
416572,94937,117317
416618,94939,117323
416669,94918,117328
416720,94929,117328
416772,94939,117330
416822,94929,117310
416873,94917,117333
416933,94900,117312
416976,94869,117295
417027,94854,117269
417078,94805,117263
417133,94789,117255
417180,94781,117249
417231,94790,117273
417292,94807,117274
417333,94792,117247
417384,94793,117277
417435,94819,117282
417492,94812,117294
417537,94810,117313
417588,94821,117268
417639,94810,117279
417692,94818,117291
417741,94811,117297
417792,94817,117290
417852,94819,117298
417894,94812,117297
417945,94807,117303
417996,94802,117314
418052,94785,117273
418098,94726,117232
418149,94670,117217
418201,94683,117244
418252,94676,117242
418303,94707,117244
418354,94703,117262
418413,94687,117258
418456,94677,117272
418507,94695,117260
418558,94706,117262
418613,94690,117273
418660,94689,117257
418711,94690,117285
418772,94696,117267
418813,94695,117264
418864,94694,117276
418915,94700,117282
418973,94702,117283
419017,94697,117309
419068,94693,117279
419119,94643,117239
419173,94618,117243
419221,94588,117230
419272,94546,117207
419332,94547,117210
419374,94540,117167
419426,94501,117186
419477,94504,117202
419532,94541,117221
419579,94537,117206
419630,94566,117226
419681,94549,117186
419732,94458,117145
419783,94410,117160
419834,94466,117180
419893,94514,117231
419936,94574,117271
419987,94661,117315
420038,94651,117309
420093,94683,117326
420140,94612,117294
420191,94025,116855
420253,93820,116763
420293,93742,116725
420344,93702,116784
420395,93956,116973
420453,94159,117086
420497,94304,117133
420548,94343,117173
420599,94478,117250
420653,94522,117258
420702,94517,117259
420753,94503,117270
420814,94489,117269
420855,94525,117270
420906,94511,117267
420957,94544,117275
421014,94525,117281
421059,94524,117264
421110,94523,117292
421161,94561,117281
421214,94487,117261
421263,94466,117276
421314,94449,117245
421373,94464,117256
421416,94467,117275
421467,94494,117267
421518,94483,117273
421574,94464,117276
421620,94458,117260
421671,94479,117266
421733,94471,117269
421774,94454,117244
421824,94444,117272
421876,94451,117261
421933,94452,117250
421978,94438,117272
422029,94425,117256
422080,94454,117282
422133,94449,117292
422182,94455,117282
422233,94394,117254
422294,94386,117255
422335,94390,117248
422386,94389,117251
422437,94396,117261
422494,94392,117281
422539,94416,117243
422590,94411,117283
422641,94432,117288
422693,94451,117300
422743,94448,117319
422794,94465,117303
422854,94445,117305
422896,94465,117323
422947,94468,117313
422998,94447,117311
423054,94444,117309
423101,94455,117308
423152,94463,117315
423213,94447,117305
423254,94417,117305
423305,94386,117253
423356,94316,117222
423413,94329,117234
423458,94331,117245
423509,94376,117265
423560,94365,117253
423613,94367,117268
423662,94392,117283
423713,94359,117271
423774,94379,117294
423815,94357,117283
423866,94405,117288
423917,94354,117293
423975,94355,117296
424019,94348,117283
424070,94390,117296
424121,94364,117288
424175,94335,117296
424223,94346,117296
424274,94348,117277
424334,94323,117231
424377,94240,117207
424428,94206,117200
424479,94214,117204
424534,94265,117224
424581,94270,117240
424632,94258,117239
424683,94267,117228
424734,94264,117245
424785,94246,117207
424836,94240,117220
424895,94233,117214
424938,94244,117217
424989,94220,117244
425040,94227,117220
425095,94228,117205
425142,94223,117220
425193,94219,117215
425255,94242,117210
425295,94230,117212
425346,94221,117216
425397,94193,117161
425455,94167,117165
425499,94170,117155
425551,94160,117163
425602,94160,117165
425655,94166,117173
425704,94179,117185
425755,94203,117201
425814,94218,117208
425857,94227,117204
425908,94240,117219
425959,94260,117240
426014,94307,117248
426061,94318,117272
426112,94376,117294
426163,94350,117257
426214,94341,117266
426265,94346,117254
426316,94387,117299
426374,94396,117292
426418,94386,117261
426469,94370,117275
426520,94398,117293
426574,94437,117294
426622,94428,117285
426673,94523,117340
426735,94544,117343
426776,94443,116919
426827,93104,116187
426878,92090,115794
426935,91521,116074
426980,91391,117602
427031,91464,118250
427082,91131,118450
427135,91040,118416
427184,91006,118378
427235,91066,118228
427296,91128,117898
427337,91076,116901
427388,90637,115781
427439,91507,116347
427496,93225,117442
427541,94997,118192
427592,94856,117549
427643,95394,118466
427695,95762,118182
427745,95604,118592
427796,96551,119065
427856,96965,119395
427898,97374,119388
427949,96978,118838
428001,95176,117807
428056,93779,117019
428103,92679,116908
428154,92286,118541
428215,92284,118877
428256,92153,118984
428307,92042,119086
428358,91936,119001
428415,91953,118727
428460,91902,118128
428511,91533,116666
428562,91284,116166
428615,93647,118129
428664,95583,118831
428715,98532,120740
428776,99082,120283
428817,97799,119042
428868,96909,120251
428919,99025,120758
428975,99205,120762
429021,98893,120185
429072,97463,119041
429123,95197,117701
429175,93498,117105
429226,92720,118522
429277,92677,119286
429336,92530,119350
429379,92468,119349
429430,92434,119285
429481,92391,118602
429536,92085,117410
429583,91642,116262
429634,94257,118193
429695,95493,119010
429736,97108,119592
429787,97651,120349
429838,101003,122355
429895,101171,119859
429942,97522,120692
429993,99699,120968
430044,99781,121381
430096,100312,121642
430147,100437,121578
430199,99201,120316
430255,97916,119340
430302,96670,118625
430353,95206,117635
430404,93199,119363
430457,93064,119538
430506,92926,119565
430557,92847,119318
430616,92795,118810
430659,92504,117764
430710,92039,116593
430761,93158,117830
430816,95730,119171
430863,97069,119865
430914,98271,120030
430977,97532,119221
431016,95698,118839
431067,96723,119469
431118,94997,119017
431176,97269,119739
431220,97569,120002
431271,98506,120771
431322,99005,120564
431376,98322,119891
431424,97509,119731
431476,94404,117564
431537,93341,118701
431578,93414,119469
431629,93335,119611
431680,93181,119636
431737,93156,119563
431782,93113,119324
431833,93011,119739
431884,92203,116405
431937,92584,117242
431986,95775,119907
432037,99053,121125
432096,100004,121837
432140,101157,122311
432192,101346,121365
432244,100950,122094
432296,100797,121623
432348,100220,121531
432401,100101,121093
432456,98948,120280
432504,98164,119862
432555,95946,118043
432616,93693,118457
432657,93635,119534
432708,93596,119788
432759,93422,119820
432816,93393,119675
432861,93335,119371
432912,93116,118270
432963,92503,117904
433016,96216,119862
433065,98766,120943
433116,100744,122008
433176,101455,122650
433220,102108,122523
433272,100075,121346
433324,102183,122746
433377,101917,122573
433429,101773,122356
433481,99404,120452
433538,98409,120363
433583,97649,118804
433634,94639,118054
433685,93821,119882
433738,93650,119923
433787,93608,119904
433838,93508,119597
433897,93422,118899
433940,92914,117406
433991,92503,116582
434042,97381,119983
434098,98367,121259
434144,100653,122089
434196,101803,122765
434258,102452,123180
434300,102455,122681
434353,100513,120877
434405,102472,122829
434458,101853,122085
434509,100732,121706
434561,99414,120589
434618,97529,118636
434663,94338,117961
434714,93786,119049
434765,93828,119907
434818,93727,119955
434867,93689,119961
434918,93565,119349
434978,93280,118140
435020,92767,116996
435071,92577,116627
435122,98300,120522
435178,98665,120664
435224,99292,121402
435275,102185,123094
435337,102718,122831
435380,100138,120333
435432,99782,122431
435483,102027,122639
435538,102030,122648
435587,101967,122526
435639,101467,122296
435698,101556,122330
435743,101529,122266
435795,101424,122236
435847,101591,122297
435899,101478,122249
435952,101441,122284
436004,101572,122384
436057,101702,122487
436108,101865,122597
436160,102248,122855
436217,102426,122934
436264,102551,123012
436316,102649,123037
436378,102688,123019
436420,102683,123028
436472,102693,123048
436524,102622,122984
436578,102648,123001
436629,102661,122987
436681,102713,123059
436738,102750,123046
436785,102721,123031
436837,102694,123064
436898,102744,123060
436941,102699,123051
436993,102699,123035
437045,102702,123031
437099,102698,123080
437149,102787,123113
437202,102767,123043
437259,102689,123017
437306,102650,122977
437358,102631,122970
437419,102659,122978
437462,102671,122962
437514,102636,122946
437566,102610,122915
437619,102540,122891
437670,102544,122887
437722,102525,122886
437778,102551,122900
437827,102571,122909
437879,102563,122903
437938,102558,122900
437983,102570,122905
438035,102560,122898
438087,102543,122882
438139,102532,122807
438191,102424,122788
438243,102428,122809
438299,102475,122835
438347,102499,122870
438399,102536,122878
438459,102505,122852
438504,102486,122822
438556,102491,122859
438608,102500,122843
438660,102462,122830
438712,102496,122886
438764,102577,122876
438819,102479,122824
438868,102438,122848
438920,102498,122856
438978,102484,122865
439024,102581,122955
439077,102644,122885
439138,102478,122789
439181,102391,122774
439233,102404,122796
439285,102391,122747
439338,102332,122708
439389,102268,122651
439441,102111,122582
439498,102100,122566
439545,102096,122559
439597,102110,122568
439659,102095,122538
439702,102039,122490
439754,101972,122505
439806,101973,122479
439859,101981,122460
439910,101939,122434
439962,101806,122335
440019,101770,122320
440066,101746,122322
440118,101642,122227
440180,101597,122242
440222,101602,122244
440274,101603,122225
440327,101510,122168
440380,101464,122171
440431,101451,122131
440483,101450,122142
440540,101416,122121
440587,101433,122102
440639,101343,122068
440700,101339,122076
440743,101362,122044
440795,101291,121984
440847,101153,121923
440899,101158,121926
440952,101160,121945
441004,101149,121924
441059,101138,121905
441108,101129,121918
441160,101050,121854
441219,101022,121851
441264,101016,121887
441316,101030,121861
441368,100969,121806
441420,100941,121809
441472,100949,121823
441524,100943,121779
441580,100876,121737
441629,100825,121715
441681,100819,121683
441740,100745,121652
441785,100711,121623
441837,100685,121626
441889,100691,121631
441941,100696,121589
441993,100646,121570
442045,100568,121564
442099,100602,121565
442149,100575,121531
442202,100484,121495
442259,100474,121494
442306,100453,121467
442358,100402,121448
442419,100388,121444
442462,100373,121435
442514,100356,121418
442566,100324,121394
442619,100328,121394
442670,100310,121353
442722,100294,121339
442780,100273,121350
442827,100260,121354
442879,100233,121327
442940,100223,121297
442983,100160,121248
443035,100094,121189
443087,100030,121205
443140,100095,121256
443191,100104,121244
443243,100038,121193
443299,100000,121177
443347,99951,121121
443398,99853,121049
443460,99852,121057
443500,99843,121036
443552,99808,121033
443603,99782,121000
443660,99753,120971
443705,99727,121014
443756,99693,120972
443807,99714,120997
443860,99748,120988
443909,99746,121018
443960,99743,121056
444021,99751,121057
444062,99774,121013
444113,99693,121007
444164,99697,121047
444221,99758,121057
444266,99770,121022
444317,99645,120946
444368,99588,120930
444420,99617,120945
444470,99644,120943
444521,99622,120928
444581,99589,120927
444623,99562,120917
444674,99589,120938
444725,99566,120889
444781,99497,120873
444828,99436,120747
444879,99146,120615
444940,99114,120623
444981,99061,120512
445032,98917,120473
445083,98772,120345
445140,98677,120329
445185,98694,120373
445236,98717,120328
445287,98593,120276
445340,98564,120245
445389,98533,120245
445440,98503,120213
445501,98498,120204
445542,98513,120220
445593,98505,120235
445644,98548,120292
445700,98600,120308
445746,98581,120269
445797,98508,120232
445848,98508,120219
445900,98424,120173
445950,98389,120160
446002,98259,120055
446061,98146,120028
446104,98132,120014
446155,98082,119921
446206,97939,119859
446261,97918,119861
446308,97908,119875
446359,97960,119918
446420,97993,119898
446461,97932,119855
446512,97916,119878
446563,97837,119812
446620,97821,119805
446665,97826,119834
446716,97820,119787
446767,97770,119774
446821,97758,119751
446869,97744,119769
446920,97693,119741
446980,97705,119727
447022,97672,119724
447073,97685,119756
447124,97688,119731
447182,97613,119670
447227,97559,119636
447278,97556,119654
447329,97500,119635
447382,97455,119609
447431,97459,119637
447482,97517,119698
447541,97624,119670
447584,97477,119580
447635,97342,119510
447686,97342,119558
447741,97387,119562
447788,97330,119504
447839,97279,119481
447902,97251,119497
447941,97259,119473
447992,97169,119393
448043,97121,119396
448101,97137,119390
448145,97138,119391
448196,97101,119367
448247,97119,119392
448301,97124,119395
448349,97117,119393
448400,97172,119451
448462,97214,119458
448503,97233,119474
448554,97268,119502
448605,97316,119561
448662,97394,119608
448707,97458,119626
448758,97524,119390
448809,97425,119547
448862,97351,119536
448911,97357,119554
448962,97377,119549
449021,97383,119556
449064,97378,119567
449115,97402,119562
449166,97280,119505
449221,97274,119501
449268,97282,119507
449319,97316,119523
449370,97302,119497
449422,97265,119521
449472,97226,119451
449523,97190,119439
449581,97187,119446
449625,97194,119439
449677,97179,119444
449728,97045,119319
449781,97008,119302
449830,96981,119273
449881,96896,119224
449942,96880,119196
449983,96829,119176
450034,96790,119181
450085,96865,119228
450142,96908,119262
450187,96890,119191
450238,96875,119208
450289,96732,119104
450342,96730,119111
450391,96709,119130
450442,96721,119112
450502,96734,119104
450544,96710,119085
450595,96642,119071
450646,96578,119024
450702,96611,119046
450748,96610,119041
450799,96570,119013
450850,96476,118942
450902,96472,118949
450953,96496,118945
451004,96497,118980
451063,96472,118958
451106,96465,118950
451157,96467,118946
451208,96439,118945
451263,96457,118962
451310,96483,118964
451361,96416,118906
451422,96422,118904
451463,96389,118905
451514,96413,118902
451565,96429,118917
451622,96429,118913
451667,96383,118886
451718,96372,118871
451769,96328,118844
451823,96310,118840
451871,96315,118839
451922,96336,118857
451982,96358,118862
452024,96348,118873
452075,96346,118865
452126,96353,118850
452182,96334,118839
452229,96328,118838
452280,96323,118838
452331,96314,118843
452382,96319,118845
452433,96347,118837
452484,96403,118927
452543,96513,118938
452586,96512,118956
452637,96502,118940
452688,96485,118902
452743,96447,118890
452790,96424,118850
452841,96392,118868
452902,96404,118853
452943,96358,118806
452994,96334,118790
453045,96338,118816
453103,96327,118809
453147,96303,118831
453198,96319,118798
453249,96298,118791
453303,96284,118785
453351,96272,118785
453403,96305,118792
453462,96283,118742
453505,96206,118709
453556,96151,118672
453607,96132,118661
453662,96120,118642
453709,96093,118628
453760,96097,118648
453811,96148,118674
453862,96154,118661
453913,96097,118601
453964,96090,118631
454023,96099,118632
454066,96082,118611
454117,96101,118631
454168,96061,118587
454222,96010,118558
454270,95982,118546
454321,96034,118577
454383,96015,118528
454423,95942,118485
454474,95927,118512
454525,95936,118480
454583,95939,118471
454628,95956,118528
454679,95930,118470
454730,95895,118456
454783,95902,118445
454832,95908,118467
454883,95863,118458
454944,95849,118458
454985,95888,118423
455036,95882,118436
455087,95851,118438
455144,95863,118446
455189,95878,118428
455240,95821,118408
455291,95789,118363
455344,95735,118341
455393,95754,118330
455444,95754,118322
455504,95725,118307
455546,95702,118306
455597,95730,118309
455648,95728,118303
455704,95691,118267
455750,95663,118284
455801,95707,118293
455863,95726,118293
455904,95682,118269
455955,95688,118294
456006,95794,118374
456063,95841,118353
456108,95791,118333
456159,95771,118319
456210,95753,118282
456263,95686,118228
456312,95664,118236
456363,95681,118238
456424,95692,118245
456465,95715,118256
456516,95701,118240
456567,95739,118272
456624,95730,118280
456669,95739,118235
456720,95717,118239
456771,95725,118240
456823,95691,118235
456873,95689,118250
456924,95646,118220
456984,95654,118203
457026,95620,118193
457078,95613,118185
457129,95602,118151
457184,95558,118128
457231,95536,118104
457282,95529,118114
457343,95547,118106
457384,95530,118103
457435,95539,118130
457486,95556,118116
457543,95541,118099
457588,95532,118115
457639,95545,118108
457690,95569,118142
457743,95585,118128
457792,95563,118125
457843,95538,118135
457903,95583,118147
457945,95606,118163
457996,95681,118197
458047,95740,118213
458103,95785,118258
458149,95873,118313
458200,96054,118463
458251,96291,118574
458305,96300,118557
458354,96266,118572
458405,96271,118582
458464,96355,118623
458507,96358,118627
458558,96368,118617
458609,96335,118609
458664,96350,118609
458711,96349,118586
458762,96381,118624
458825,96327,118593
458864,96314,118575
458915,96254,118546
458966,96253,118522
459025,96247,118541
459068,96291,118577
459119,96292,118578
459170,96296,118563
459224,96289,118565
459272,96291,118584
459323,96273,118559
459385,96250,118551
459425,96237,118542
459476,96231,118541
459528,96228,118555
459585,96243,118553
459630,96242,118541
459681,96248,118563
459732,96227,118530
459785,96177,118502
459834,96152,118503
459885,96153,118476
459944,96136,118488
459987,96144,118500
460038,96169,118501
460089,96096,118477
460144,96095,118474
460191,96099,118497
460242,96131,118501
460293,96121,118491
460345,96096,118503
460395,96094,118469
460446,96097,118497
460504,96117,118494
460548,96094,118469
460599,96048,118469
460650,95970,118392
460704,95939,118362
460753,95923,118380
460804,95941,118374
460865,95935,118398
460906,95933,118390
460957,95937,118390
461008,95922,118365
461065,95929,118389
461110,95967,118406
461161,95969,118408
461212,95899,118372
461265,95924,118387
461314,95931,118404
461365,95919,118385
461424,95921,118388
461467,95939,118399
461518,95921,118398
461569,95848,118342
461625,95846,118304
461671,95832,118321
461722,95774,118301
461773,95701,118236
461825,95715,118249
461875,95713,118264
461926,95749,118331
461986,95775,118325
462029,95779,118329
462080,95800,118350
462131,95825,118387
462186,95868,118413
462233,95853,118381
462284,95830,118375
462345,95871,118376
462386,95828,118367
462437,95832,118377
462488,95867,118380
462545,95825,118347
462590,95747,118337
462641,95750,118314
462692,95767,118329
462745,95780,118342
462794,95767,118333
462845,95785,118349
462905,95787,118354
462947,95781,118358
462998,95796,118387
463049,95800,118369
463105,95780,118371
463151,95808,118387
463203,95809,118392
463254,95865,118415
463305,95849,118356
463356,95748,118311
463407,95707,118301
463466,95695,118283
463509,95692,118322
463560,95727,118338
463611,95763,118367
463666,95775,118363
463713,95751,118329
463764,95701,118338
463825,95736,118347
463866,95722,118336
463917,95718,118331
463968,95751,118351
464026,95744,118352
464070,95686,118318
464121,95585,118207
464172,95551,118217
464226,95543,118227
464274,95538,118225
464325,95571,118248
464385,95578,118236
464428,95560,118220
464479,95574,118252
464530,95567,118235
464585,95548,118231
464632,95533,118219
464683,95552,118243
464734,95558,118229
464785,95549,118231
464836,95532,118208
464887,95483,118167
464946,95474,118162
464989,95455,118164
465040,95501,118201
465091,95448,118164
465146,95471,118178
465193,95443,118184
465244,95466,118203
465306,95489,118198
465346,95514,118198
465397,95467,118207
465448,95459,118203
465506,95473,118194
465550,95463,118150
465601,95385,118126
465653,95394,118139
465706,95407,118130
465755,95406,118143
465806,95364,118109
465867,95350,118116
465908,95378,118125
465959,95397,118129
466010,95385,118124
466067,95347,118121
466112,95352,118116
466163,95356,118114
466214,95384,118125
466267,95360,118125
466316,95356,118141
466367,95311,118082
466426,95296,118079
466469,95279,118066
466520,95301,118088
466571,95334,118082
466627,95306,118074
466673,95298,118067
466724,95341,118088
466786,95317,118093
466827,95314,118104
466877,95327,118115
466929,95327,118121
466986,95333,118135
467031,95352,118137
467082,95343,118106
467133,95321,118101
467186,95306,118088
467235,95310,118084
467286,95296,118079
467347,95287,118095
467388,95289,118077
467439,95261,118066
467490,95270,118079
467547,95273,118093
467592,95277,118054
467643,95277,118083
467694,95269,118078
467746,95276,118084
467796,95265,118085
467847,95282,118088
467907,95276,118086
467949,95278,118095
468000,95258,118087
468051,95172,118020
468107,95157,117991
468154,95165,118005
468205,95167,117987
468266,95137,117995
468307,95172,118042
468358,95208,118048
468409,95188,118054
468468,95184,118057
468511,95204,118061
468562,95246,118085
468613,95210,118095
468668,95215,118095
468715,95261,118093
468766,95204,118105
468827,95252,118111
468868,95227,118112
468919,95254,118093
468970,95208,118101
469028,95206,118094
469072,95176,118051
469123,95170,118029
469174,95102,118013
469228,95111,118040
469276,95115,118038
469327,95118,118039
469387,95123,118030
469430,95093,118031
469481,95096,118037
469532,95098,118038
469587,95095,118024
469634,95079,118033
469685,95058,118027
469736,95068,118013
469787,95056,118046
469838,95048,118001
469889,95060,118019
469948,95006,117988
469991,94984,117974
470042,94955,118005
470093,95006,117991
470148,94938,117939
470195,94921,117936
470246,94779,117860
470308,94774,117861
470348,94814,117889
470399,94826,117893
470450,94832,117908
470508,94852,117938
470552,94910,117944
470604,94943,117973
470655,94984,118000
470708,94947,117967
470757,94909,117956
470808,94836,117891
470867,94835,117909
470910,94830,117905
470961,94842,117928
471012,94857,117945
471067,94902,117957
471114,94895,117964
471165,94896,117968
471216,94914,117959
471267,94900,117986
471318,94871,117945
471369,94862,117963
471427,94881,117970
471471,94881,117969
471522,94862,117986
471573,94792,117915
471627,94786,117902
471675,94788,117907
471726,94777,117918
471788,94783,117911
471829,94762,117898
471880,94765,117915
471931,94834,117927
471988,94795,117916
472033,94774,117925
472084,94806,117942
472135,94831,117951
472188,94810,117949
472237,94799,117939
472288,94744,117899
472347,94748,117892
472390,94737,117886
472441,94708,117883
472492,94716,117896
472547,94743,117885
472594,94720,117897
472645,94706,117892
472696,94726,117892
472748,94735,117903
472798,94724,117870
472849,94661,117875
472907,94682,117883
472951,94690,117889
473002,94727,117908
473054,94566,117809
473107,94599,117824
473156,94593,117827
473207,94587,117816
473268,94622,117815
473309,94595,117814
473360,94592,117817
473411,94597,117818
473468,94597,117843
473513,94573,117829
473564,94616,117846
473615,94595,117836
473668,94623,117841
473717,94578,117843
473768,94526,117820
473829,94537,117817
473870,94559,117807
473921,94526,117808
473972,94559,117830
474028,94573,117825
474074,94560,117794
474125,94503,117798
474176,94527,117804
474228,94572,117824
474279,94586,117820
474330,94539,117771
474389,94480,117782
474432,94497,117803
474483,94554,117830
474534,94518,117786
474589,94481,117794
474636,94511,117811
474687,94567,117812
474748,94541,117794
474789,94507,117778
474840,94526,117794
474891,94493,117758
474948,94477,117779
474993,94504,117834
475044,94532,117795
475095,94482,117776
475149,94467,117778
475197,94470,117776
475248,94463,117760
475308,94461,117763
475350,94451,117758
475401,94443,117731
475452,94370,117698
475508,94387,117708
475555,94397,117718
475606,94415,117733
475657,94418,117729
475708,94407,117729
475759,94403,117710
475810,94434,117756
475869,94440,117736
475912,94408,117736
475963,94414,117731
476014,94429,117758
476069,94442,117764
476116,94424,117711
476167,94361,117707
476228,94385,117702
476269,94386,117696
476320,94386,117699
476371,94391,117683
476429,94368,117699
476473,94381,117741
476524,94397,117699
476575,94419,117714
476629,94399,117723
476677,94385,117718
476729,94400,117706
476788,94386,117697
476831,94381,117674
476882,94385,117708
476933,94351,117681
476988,94345,117676
477035,94323,117650
477086,94333,117662
477137,94318,117666
477188,94325,117663
477239,94351,117653
477290,94342,117658
477349,94346,117676
477392,94350,117681
477443,94374,117686
477494,94362,117674
477548,94368,117696
477596,94376,117693
477647,94323,117658
477709,94340,117666
477750,94310,117647
477800,94305,117667
477851,94312,117679
477909,94343,117682
477954,94343,117674
478005,94295,117651
478056,94315,117671
478109,94349,117689
478158,94329,117669
478209,94306,117690
478270,94326,117708
478311,94381,117696
478362,94362,117679
478413,94270,117630
478470,94268,117649
478515,94301,117650
478566,94291,117652
478617,94346,117676
478670,94305,117650
478719,94246,117608
478770,94232,117614
478830,94205,117601
478872,94147,117577
478923,94181,117625
478974,94297,117658
479030,94244,117613
479076,94148,117564
479127,94145,117570
479189,94157,117571
479230,94172,117585
479281,94199,117618
479332,94222,117614
479389,94211,117611
479434,94215,117628
479485,94228,117604
479536,94216,117613
479589,94216,117609
479638,94235,117629
479689,94215,117616
479750,94207,117588
479791,94212,117607
479842,94216,117615
479893,94223,117612
479950,94221,117611
479995,94216,117590
480046,94219,117606
480097,94245,117624
480149,94222,117619
480199,94222,117637
480250,94221,117636
480310,94235,117637
480352,94228,117651
480404,94247,117638
480455,94210,117594
480510,94176,117599
480557,94187,117605
480608,94201,117607
480669,94217,117595
480710,94190,117577
480761,94182,117604
480812,94194,117614
480869,94199,117595
480914,94194,117612
480965,94199,117586
481016,94207,117616
481069,94208,117617
481118,94223,117620
481169,94166,117600
481229,94173,117585
481271,94170,117581
481322,94174,117581
481373,94168,117572
481429,94177,117582
481475,94173,117561
481526,94176,117588
481577,94156,117576
481629,94161,117582
481680,94159,117610
481731,94130,117569
481790,94138,117590
481833,94123,117580
481884,94113,117559
481935,94066,117553
481990,94099,117552
482037,94101,117507
482088,94088,117535
482151,94062,117534
482190,94092,117546
482241,94056,117530
482292,94078,117539
482351,94085,117552
482394,94100,117547
482445,94076,117531
482496,94091,117546
482550,94091,117539
482598,94077,117539
482649,94012,117503
482711,94008,117491
482751,94014,117494
482802,94017,117502
482854,94006,117504
482911,94000,117511
482956,94004,117493
483007,94004,117552
483058,94001,117510
483111,94008,117510
483160,94026,117522
483211,94046,117523
483270,94034,117533
483313,94026,117511
483364,94037,117537
483415,94021,117512
483470,94005,117520
483517,93991,117509
483568,93975,117493
483619,93951,117468
483671,93929,117500
483721,93939,117458
483772,93953,117489
483830,93951,117493
483874,93934,117476
483925,93939,117506
483976,93958,117505
484030,93972,117496
484078,93972,117510
484130,93966,117494
484191,93960,117519
484232,93978,117512
484283,93975,117506
484334,93939,117465
484391,93904,117452
484436,93898,117442
484487,93876,117449
484538,93903,117460
484591,93917,117464
484640,93904,117470
484691,93897,117457
484750,93902,117463
484793,93913,117472
484844,93905,117473
484895,93885,117471
484951,93904,117450
484997,93920,117484
485048,93894,117473
485099,93882,117465
485151,93906,117450
485201,93899,117447
485252,93794,117425
485312,93777,117388
485355,93760,117405
485406,93806,117428
485457,93765,117423
485512,93778,117432
485559,93777,117429
485610,93803,117445
485671,93848,117446
485712,93798,117436
485763,93811,117449
485814,93869,117482
485871,93884,117496
485916,93866,117512
485967,93910,117511
486018,93871,117495
486071,93861,117473
486120,93805,117453
486171,93771,117421
486231,93770,117408
486273,93730,117418
486324,93740,117425
486375,93745,117425
486431,93745,117416
486477,93744,117415
486528,93737,117429
486580,93734,117419
486631,93748,117439
486682,93755,117430
486733,93754,117452
486792,93752,117443
486835,93760,117442
486886,93745,117423
486937,93714,117408
486992,93698,117416
487039,93711,117404
487090,93702,117387
487151,93710,117399
487192,93698,117390
487243,93699,117392
487294,93718,117415
487351,93695,117414
487396,93680,117431
487447,93693,117405
487498,93675,117406
487552,93669,117419
487600,93660,117409
487651,93648,117393
487711,93610,117364
487753,93581,117349
487805,93576,117352
487856,93568,117359
487911,93585,117369
487958,93582,117353
488009,93572,117366
488060,93595,117381
488111,93609,117376
488162,93613,117367
488213,93637,117386
488272,93631,117398
488315,93639,117396
488366,93631,117403
488417,93646,117401
488472,93643,117414
488519,93634,117384
488570,93584,117347
488632,93577,117344
488672,93567,117335
488723,93557,117345
488774,93557,117343
488832,93560,117351
488876,93563,117384
488927,93552,117329
488978,93549,117355
489032,93568,117351
489081,93564,117363
489132,93542,117343
489191,93550,117356
489234,93566,117343
489285,93578,117374
489336,93554,117345
489391,93547,117347
489438,93523,117346
489489,93512,117340
489540,93510,117345
489593,93494,117339
489642,93529,117325
489693,93495,117343
489752,93518,117346
489795,93474,117328
489846,93529,117343
489897,93497,117353
489953,93484,117344
489999,93481,117335
490050,93481,117363
490112,93509,117351
490153,93470,117336
490203,93476,117350
490255,93483,117357
490312,93487,117343
490357,93462,117321
490408,93399,117279
490459,93382,117288
490512,93396,117288
490561,93406,117299
490612,93391,117288
490673,93374,117310
490714,93406,117304
490765,93382,117321
490816,93422,117327
490873,93421,117337
490918,93440,117340
490969,93428,117340
491020,93477,117353
491072,93448,117359
491122,93454,117362
491173,93448,117369
491233,93428,117356
491275,93432,117360
491326,93422,117353
491377,93363,117310
491433,93348,117313
491480,93347,117306
491531,93348,117313
491592,93368,117319
491633,93351,117309
491684,93350,117324
491735,93360,117312
491792,93362,117315
491837,93359,117332
491888,93350,117316
491939,93371,117342
491992,93371,117341
492041,93367,117348
492092,93357,117354
492153,93372,117363
492194,93389,117365
492245,93363,117355
492296,93334,117314
492352,93304,117322
492398,93300,117290
492449,93293,117311
492500,93349,117341
492552,93329,117332
492602,93317,117350
492653,93322,117323
492713,93309,117324
492756,93307,117341
492807,93311,117338
492858,93319,117327
492913,93297,117328
492960,93310,117340
493011,93299,117332
493072,93297,117319
493113,93296,117319
493164,93297,117330
493215,93232,117285
493272,93231,117281
493317,93232,117295
493368,93210,117274
493419,93208,117286
493472,93222,117285
493521,93248,117308
493572,93219,117303
493632,93262,117309
493674,93271,117324
493725,93276,117329
493776,93260,117309
493832,93259,117322
493878,93254,117303
493930,93274,117337
493981,93253,117312
494032,93245,117318
494083,93221,117367
494134,93189,117287
494193,93196,117282
494236,93154,117279
494287,93144,117276
494338,93150,117293
494393,93180,117309
494440,93137,117279
494491,93162,117307
494554,93141,117307
494593,93196,117301
494644,93164,117312
494695,93183,117313
494753,93200,117314
494797,93210,117315
494848,93182,117304
494899,93184,117324
494953,93196,117327
495001,93199,117318
495052,93120,117270
495114,93114,117267
495155,93117,117267
495206,93114,117266
495257,93093,117258
495314,93076,117269
495359,93090,117257
495410,93110,117278
495461,93091,117268
495514,93076,117261
495563,93063,117265
495614,93037,117248
495673,93051,117249
495716,93040,117252
495767,93062,117255
495818,93062,117262
495873,93044,117240
495920,92990,117178
495971,92987,117197
496033,92972,117197
496073,92966,117188
496124,92950,117193
496175,92974,117183
496233,92966,117179
496277,92955,117191
496328,92947,117188
496380,92962,117193
496433,92956,117198
496482,92949,117202
496533,92942,117207
496594,92954,117199
496635,92930,117177
496686,92915,117176
496737,92903,117177
496794,92927,117198
496839,92940,117187
496890,92919,117179
496941,92930,117203
496994,92941,117208
497043,92961,117204
497094,92924,117200
497153,92932,117184
497196,92912,117199
497247,92926,117192
497298,92893,117154
497354,92866,117157
497400,92878,117176
497451,93076,117247
497513,92958,117155
497554,92826,117154
497605,92849,117156
497656,92910,117190
497713,92917,117192
497758,92908,117185
497809,92938,117231
497860,92929,117188
497913,92909,117186
497962,92902,117185
498013,92865,117153
498074,92855,117135
498115,92825,117147
498166,92846,117154
498217,92884,117189
498274,92968,117227
498319,92989,117207
498370,92989,117220
498421,92900,117203
498475,92885,117197
498523,92882,117199
498574,92873,117194
498634,92910,117210
498676,92894,117208
498727,92908,117230
498778,92882,117219
498834,92922,117226
498881,92931,117228
498932,92892,117210
498983,92859,117181
499034,92857,117185
499085,92868,117156
499136,92869,117197
499195,92844,117189
499238,92829,117181
499289,92854,117202
499340,92838,117177
499395,92830,117177
499442,92859,117202
499493,92853,117204
499554,92886,117199
499595,92844,117197
499646,92858,117195
499697,92871,117214
499755,92860,117208
499799,92849,117184
499850,92829,117174
499902,92773,117150
499955,92802,117156
500007,92808,117184
500059,92800,117188
500114,92798,117186
500163,92801,117191
500215,92790,117168
500274,92769,117141
500319,92773,117193
500371,92793,117179
500423,92789,117158
500475,92740,117144
500527,92728,117161
500579,92782,117186
500635,92781,117174
500684,92755,117151
500736,92729,117139
500795,92705,117142
500840,92708,117120
500892,92702,117147
500944,92720,117158
500996,92717,117152
501048,92700,117141
501100,92699,117160
501154,92721,117157
501204,92701,117165
501257,92720,117171
501314,92709,117158
501361,92688,117144
501413,92689,117163
501474,92684,117151
501517,92663,117120
501569,92637,117105
501621,92665,117129
501675,92662,117146
501725,92658,117105
501777,92672,117118
501835,92657,117145
501882,92639,117115
501934,92637,117128
501995,92671,117126
502038,92658,117143
502090,92632,117108
502142,92647,117149
502195,92671,117147
502246,92653,117134
502298,92594,117108
502354,92580,117093
502402,92613,117103
502454,92574,117096
502514,92572,117089
502559,92618,117104
502611,92613,117097
502663,92591,117096
502715,92594,117090
502767,92584,117105
502819,92552,117080
502874,92571,117105
502923,92572,117107
502975,92525,117060
503035,92527,117050
503079,92482,117075
503132,92497,117061
503184,92525,117080
503236,92544,117051
503288,92488,117070
503340,92496,117075
503395,92520,117075
503444,92522,117068
503496,92501,117059
503556,92478,117072
503600,92504,117045
503652,92484,117050
503704,92469,117035
503757,92437,117032
503809,92426,117005
503861,92439,117005
503916,92404,117002
503965,92393,117029
504017,92452,117024
504076,92428,117024
504121,92404,117011
504173,92412,117009
504235,92414,117010
504277,92405,117015
504329,92411,117034
504382,92418,116997
504435,92355,116967
504486,92333,116959
504538,92386,116990
504595,92396,116984
504642,92371,116975
504694,92356,116953
504755,92324,116937
504798,92313,116935
504850,92327,116978
504902,92375,116963
504956,92341,116966
505007,92344,116963
505059,92341,116967
505116,92296,116920
505163,92246,116900
505215,92274,116942
505276,92297,116940
505319,92305,116957
505371,92320,116938
505423,92306,116931
505475,92252,116949
505527,92286,116960
505579,92392,117031
505635,92419,117023
505684,92404,117014
505736,92308,116964
505795,92313,116961
505840,92304,116987
505892,92332,116987
505944,92336,116993
505996,92307,116946
506048,92281,116966
506100,92256,116951
506156,92265,116964
506204,92297,116979
506257,92299,116960
506316,92225,116949
506361,92233,116936
506413,92240,116959
506465,92272,116964
506517,92261,116970
506569,92250,116962
506621,92255,116963
506675,92244,116956
506725,92222,116971
506777,92211,116939
506835,92204,116933
506882,92216,116939
506934,92220,116944
506995,92206,116948
507038,92205,116926
507090,92187,116937
507142,92208,116956
507195,92219,116968
507246,92224,116955
507298,92215,116963
507356,92224,116968
507402,92205,116960
507454,92199,116955
507516,92199,116942
507559,92177,116939
507611,92116,116924
507663,92126,116911
507716,92166,116928
507767,92167,116937
507819,92104,116915
507876,92152,116903
507923,92143,116915
507975,92071,116905
508037,92085,116930
508079,92088,116921
508132,92104,116890
508184,92065,116917
508237,92061,116941
508288,92108,116913
508340,92009,116904
508397,91992,116901
508444,91997,116893
508496,91996,116908
508556,92048,116904
508600,92010,116901
508652,91998,116905
508704,92010,116898
508757,92019,116885
508809,91999,116906
508861,92001,116910
508916,92017,116909
508965,92016,116909
509017,92002,116909
509076,92025,116923
509121,92038,116924
509173,92023,116913
509225,92048,116947
509277,92086,116967
509329,92110,116978
509382,92131,116991
509437,92125,116983
509486,92130,116997
509538,92190,117031
509597,92182,117034
509642,92178,117013
509694,92209,117041
509757,92180,117025
509798,92165,117025
509850,92187,117056
509902,92191,117023
509956,92159,117016
510007,92147,116993
510059,92149,117018
510116,92149,117025
510163,92151,117039
510215,92144,117024
510276,92134,117019
510319,92143,117021
510371,92140,117043
510423,92132,117033
510477,92124,117036
510527,92153,117027
510579,92145,117020
510637,92108,117029
510684,92123,116996
510736,92062,116957
510797,92042,116945
510840,92045,116979
510892,92074,116976
510944,92086,116975
510997,92075,116983
511048,92073,116988
511100,92089,116985
511156,92055,116970
511204,92067,116983
511257,92050,116970
511316,92030,116949
511361,92064,116971
511413,92060,116970
511465,91937,116885
511517,91901,116848
511569,91910,116898
511621,91924,116893
511677,91972,116908
511725,91962,116929
511777,91974,116927
511837,92011,116925
511882,91968,116949
511934,91958,116922
511986,91988,116951
512038,91997,116925
512090,91952,116931
512142,91988,116952
512197,92006,116940
512246,91985,116930
512298,91954,116908
512358,91933,116925
512402,91957,116904
512454,91953,116907
512507,91909,116892
512559,91907,116910
512611,91930,116903
512663,91924,116903
512718,91931,116917
512767,91937,116947
512819,91956,116932
512878,91950,116933
512923,91951,116937
512975,92000,116937
513037,91981,116940
513079,91984,116942
513132,91981,116944
513184,91992,116946
513237,91989,116934
513288,91954,116904
513340,91945,116889
513397,91937,116885
513444,91938,116885
513496,91894,116759
513558,91347,116403
513600,91056,116362
513652,90856,116253
513704,90037,117298
513758,90233,118545
513809,90075,118701
513861,89732,118600
513918,89750,118563
513965,89824,118498
514017,89917,117746
514078,89619,116515
514121,89311,115408
514173,89877,116648
514225,90548,116412
514277,90898,116710
514329,91302,116917
514382,92492,117303
514437,92664,118283
514486,94235,118725
514538,94681,118486
514597,93428,117681
514642,92604,117549
514694,91894,117746
514746,91180,118921
514798,91104,119159
514850,90945,119217
514902,90796,119135
514958,90817,118940
515007,90735,118093
515059,89969,115832
515118,91076,117296
515163,92422,117920
515215,94482,119567
515267,97428,120723
515319,96227,117818
515371,93616,119632
515423,96426,119120
515477,94483,118582
515527,94075,118203
515579,91999,117351
515639,91440,118350
515684,91570,119083
515736,91411,119302
515799,91316,119322
515840,91276,119215
515892,91214,118726
515944,90549,116628
515999,90391,116131
516048,90872,116903
516100,94179,119154
516158,95708,120102
516204,97143,120872
516257,94252,118246
516318,95468,120336
516361,97374,120629
516413,97040,120006
516465,94563,118499
516518,93705,118023
516569,92520,117497
516621,91928,119483
516679,91783,119573
516725,91688,119577
516777,91601,119321
516839,91489,118535
516882,91068,117351
516934,90692,116398
516986,93717,118602
517039,95126,120010
517090,96897,120606
517142,97785,119229
517199,94911,120106
517246,97677,120944
517298,95900,118987
517358,94475,118480
517402,93950,118038
517454,92570,117996
517507,92153,119783
517559,92015,119843
517611,91929,119818
517663,91806,118650
517718,91238,117072
517767,90912,116605
517819,96665,120823
517878,98284,121404
517923,98522,120618
517975,95120,119515
518027,99447,121884
518079,99231,121538
518132,98362,120391
518184,95267,119080
518239,95167,118333
518288,92959,117949
518340,92452,119643
518399,92330,119746
518444,92249,119751
518496,92212,119709
518548,91863,118039
518600,91284,116502
518652,92238,118425
518704,97243,121041
518758,98344,120271
518809,95025,119907
518861,99527,121771
518918,99135,121478
518965,98705,120934
519017,95498,119009
519078,95336,118985
519121,93947,117776
519173,92587,119116
519225,92570,119959
519279,92497,119894
519329,92444,119628
519382,91772,117017
519439,91429,117356
519486,95284,120249
519538,98389,120753
519599,96352,119331
519642,97895,121744
519694,100179,122301
519747,99515,121317
519799,98328,120093
519851,95930,119014
519903,93939,117929
519959,92799,119289
520008,92852,119761
520060,92645,119588
520119,92618,119401
520164,92414,118392
520216,91842,117016
520268,95786,120341
520320,97198,119407
520372,96511,120753
520424,99458,121531
520480,98770,119962
520528,97561,121289
520580,99627,121637
520640,99519,121641
520685,99592,121629
520737,99530,121581
520789,99602,121756
520841,99833,121789
520893,99748,121673
520945,99737,121692
521000,99722,121651
521049,99666,121610
521101,99678,121612
521159,99738,121489
521205,99341,121294
521258,99198,121233
521319,99177,121220
521362,99212,121255
521414,99290,121315
521466,99417,121394
521519,99495,121443
521570,99558,121460
521622,99609,121469
521680,99575,121461
521726,99596,121447
521778,99547,121367
521840,99461,121288
521883,99388,121279
521935,99412,121261
521987,99393,121222
522040,99359,121232
522091,99376,121216
522143,99327,121149
522200,99287,121113
522247,99264,121118
522299,99226,121083
522359,99221,121057
522403,99202,121044
522455,99205,121030
522508,99162,120960
522560,99087,120938
522612,99091,120903
522664,99044,120874
522719,99056,120860
522768,99031,120835
522820,98998,120792
522879,98976,120753
522924,98933,120728
522976,98908,121083
523028,98903,120663
523080,98841,120595
523133,98773,120619
523185,98733,120586
523240,98746,120536
523289,98641,120493
523341,98550,120460
523400,98587,120443
523445,98588,120417
523497,98511,120304
523549,98346,120252
523601,98355,120260
523653,98396,120266
523705,98343,120216
523761,98309,120190
523810,98317,120178
523862,98170,120028
523921,98064,120013
523966,98094,120004
524018,98008,119921
524081,97953,119924
524122,97960,119927
524174,97978,119938
524226,97955,119887
524280,97958,119922
524330,97995,119891
524383,97704,119676
524440,97663,119683
524487,97675,119721
524539,97725,119680
524600,97644,119639
524643,97645,119645
524695,97648,119646
524747,97480,119516
524801,97458,119517
524851,97460,119503
524903,97395,119453
524961,97386,119471
525008,97402,119478
525060,97326,119424
525121,97320,119441
525164,97327,119429
525216,97313,119374
525268,97198,119316
525321,97153,119301
525372,97125,119270
525424,97120,119264
525480,97076,119234
525528,97017,119200
525580,97009,119210
525640,97022,119217
525685,97038,119219
525737,97043,119202
525789,96920,119176
525841,96992,119192
525893,97035,119225
525945,96990,119188
526000,96979,119185
526049,96965,119160
526101,96915,119120
526161,96954,119154
526205,96972,119176
526258,96941,119125
526310,96911,119113
526362,96946,119141
526414,96934,119120
526466,96780,119051
526521,96916,119159
526570,97023,119161
526622,96764,119002
526680,96779,119020
526726,96782,119001
526778,96774,119024
526830,96751,119012
526883,96741,118986
526935,96687,118930
526987,96582,118914
527042,96534,118849
527091,96486,118831
527143,96451,118855
527202,96457,118852
527247,96441,118828
527299,96338,118760
527361,96343,118765
527403,96398,118774
527455,96353,118778
527508,96284,118716
527561,96279,118733
527612,96301,118744
527664,96308,118733
527721,96337,118766
527768,96359,118754
527820,96277,118745
527881,96339,118770
527924,96377,118759
527976,96313,118697
528028,96274,118730
528082,96312,118769
528133,96365,118738
528185,96298,118740
528242,96316,118743
528289,96320,118727
528341,96252,118709
528402,96301,118739
528445,96331,118769
528497,96405,118782
528549,96422,118777
528601,96377,118807
528653,96346,118749
528705,96318,118763
528761,96382,118776
528810,96379,118760
528862,96114,118611
528921,96150,118659
528966,96228,118710
529018,96298,118709
529070,96013,118520
529122,95986,118535
529174,96053,118568
529226,95977,118512
529282,95974,118538
529330,96004,118543
529383,95952,118468
529442,95896,118472
529487,95898,118447
529539,95881,118438
529591,95826,118408
529643,95822,118382
529695,95817,118399
529747,95759,118349
529801,95747,118359
529851,95790,118370
529903,95663,118304
529961,95673,118289
530008,95666,118253
530060,95711,118303
530121,95693,118289
530164,95672,118272
530216,95685,118300
530268,95682,118285
530323,95678,118289
530372,95641,118251
530424,95582,118245
530482,95621,118226
530528,95515,118181
530580,95495,118204
530642,95531,118201
530685,95535,118191
530737,95501,118204
530789,95438,118151
530842,95501,118171
530893,95517,118170
530945,95460,118114
531002,95396,118096
531049,95396,118112
531101,95437,118109
531163,95408,118078
531205,95345,118042
531258,95299,118005
531310,95291,118020
531363,95295,118041
531414,95315,118039
531466,95261,117992
531523,95209,117975
531570,95244,118001
531622,95261,117997
531682,95247,117989
531726,95223,117982
531778,95199,117976
531830,95188,117963
531883,95214,117958
531935,95204,117963
531987,95154,117919
532042,95146,117908
532091,95107,117886
532143,95089,117895
532202,95098,117881
532247,95101,117925
532299,95111,117882
532351,95102,117910
532403,95101,117906
532455,95112,117904
532508,95150,117944
532563,95168,117942
532612,95159,117937
532664,95115,117901
532723,95100,117938
532768,95146,117947
532820,95165,117954
532872,95130,117956
532924,95159,117952
532976,95159,117955
533028,95136,117935
533082,95120,117919
533133,95102,117928
533185,95073,117891
533242,95088,117901
533289,95118,117916
533341,95118,117935
533402,95135,117962
533445,95182,117979
533497,95191,117981
533549,95216,117983
533603,95217,117984
533653,95193,117969
533705,95191,117986
533763,95211,117978
533810,95183,117977
533862,95187,117977
533923,95197,117968
533966,95180,117970
534018,95163,117953
534070,95108,117935
534123,95110,117923
534174,95099,117910
534226,94917,117862
534284,94966,117944
534330,95161,117996
534383,95046,117886
534444,94854,117803
534487,94803,117795
534539,94862,117788
534591,94885,117826
534644,94860,117841
534695,94842,117813
534747,94897,117871
534803,94969,117876
534851,94910,117847
534903,94900,117868
534963,94912,117836
535008,94843,117813
535060,94793,117805
535112,94852,117831
535164,94818,117782
535216,94732,117755
535268,94773,117814
535323,94802,117817
535372,94788,117817
535424,94774,117803
535484,94698,117747
535528,94579,117673
535580,94481,117655
535633,94462,117654
535685,94413,117591
535737,94255,117515
535789,94170,117472
535844,94152,117465
535893,94132,117492
535945,94140,117438
536004,94066,117418
536049,94036,117422
536101,94198,117543
536163,94301,117613
536205,94382,117637
536258,94420,117680
536310,94557,117756
536363,94572,117741
536414,94524,117706
536466,94471,117705
536523,94468,117715
536570,94485,117728
536622,94571,117770
536683,94578,117791
536726,94604,117798
536778,94598,117809
536830,94669,117813
536884,94591,117756
536935,94500,117730
536987,94594,117788
537044,94623,117811
537091,94619,117797
537143,94565,117766
537204,94576,117772
537247,94547,117742
537299,94518,117740
537351,94501,117748
537403,94496,117758
537455,94511,117761
537508,94522,117768
537563,94545,117786
537612,94607,117828
537664,94599,117813
537725,94588,117841
537768,94572,117811
537820,94520,117782
537872,94531,117819
537925,94597,117833
537976,94622,117836
538028,94454,117751
538084,94453,117735
538133,94420,117746
538185,94458,117763
538244,94483,117763
538289,94449,117793
538341,94458,117759
538393,94438,117751
538445,94417,117735
538497,94423,117752
538549,94428,117746
538605,94395,117745
538653,94412,117754
538705,94388,117715
538765,94301,117662
538810,94259,117635
538862,94274,117671
538914,94278,117678
538966,94256,117658
539018,94243,117654
539070,94239,117652
539125,94247,117668
539174,94287,117713
539226,94295,117647
539284,94200,117613
539330,94168,117632
539383,94180,117638
539444,94217,117639
539487,94211,117641
539539,94179,117630
539591,94116,117571
539644,94070,117534
539695,94022,117523
539747,94064,117557
539804,94070,117553
539851,94021,117513
539903,93963,117509
539965,93984,117532
540008,94007,117548
540060,94026,117531
540112,94027,117545
540165,94031,117583
540216,94083,117584
540268,94104,117588
540325,94104,117594
540372,94098,117593
540424,94028,117571
540484,94088,117592
540528,94126,117598
540580,94118,117575
540633,94062,117526
540685,93943,117485
540737,93891,117453
540789,93892,117479
540844,93923,117495
540893,93944,117509
540945,93958,117504
541004,93958,117519
541049,93973,117529
541101,93979,117571
541153,93969,117512
541205,93990,117492
541258,93950,117525
541310,93892,117476
541365,93915,117474
541414,93857,117472
541466,93882,117501
541525,93933,117486
541570,93911,117465
541622,93912,117491
541674,93885,117479
541726,93873,117481
541778,93914,117488
541830,93913,117499
541886,93912,117497
541935,93941,117513
541987,93861,117458
542046,93828,117456
542091,93854,117467
542143,93941,117518
542206,93906,117490
542247,93883,117481
542299,93904,117521
542351,93930,117516
542405,93966,117561
542455,94030,117572
542508,94082,117597
542565,94005,117539
542612,93935,117504
542664,93926,117519
542725,93996,117556
542768,94006,117546
542820,93983,117563
542872,93953,117533
542925,93966,117556
542976,93991,117557
543028,93954,117504
543086,93873,117489
543133,93890,117494
543185,93943,117540
543246,93940,117534
543289,93922,117535
543341,93943,117513
543393,93973,117544
543446,93961,117558
543497,93944,117528
543549,93906,117521
543605,93921,117527
543653,93940,117529
543705,93859,117499
543765,93900,117527
543810,93972,117567
543862,93988,117547
543914,93848,117487
543966,93871,117481
544018,93918,117512
544070,93865,117486
544125,93853,117496
544174,93875,117521
544226,93894,117499
544286,93922,117507
544330,93911,117559
544383,93950,117553
544435,93939,117529
544487,93946,117539
544539,93935,117567
544591,93893,117525
544646,93899,117524
544695,93888,117518
544747,93840,117517
544806,93852,117485
544851,93808,117460
544903,93798,117472
544955,93766,117478
545008,93785,117500
545060,93819,117493
545112,93780,117489
545167,93782,117486
545216,93788,117519
545268,93822,117522
545327,93838,117547
545372,93836,117545
545424,93863,117561
545486,93873,117568
545528,93884,117573
545580,93861,117573
545633,93883,117600
545686,93894,117588
545737,93845,117550
545789,93818,117544
545846,93829,117558
545893,93834,117587
545945,93861,117557
546006,93835,117575
546049,93839,117577
546101,93844,117617
546153,93869,117614
546207,93873,117628
546258,93891,117627
546310,93879,117635
546367,93873,117643
546414,93890,117634
546466,93824,117590
546527,93790,117581
546570,93790,117583
546622,93798,117574
546674,93817,117596
546726,93805,117607
546778,93808,117591
546830,93813,117607
546886,93812,117598
546935,93808,117609
546987,93815,117609
547046,93807,117601
547091,93819,117614
547143,93828,117617
547195,93791,117621
547247,93820,117617
547299,93807,117625
547351,93793,117607
547407,93799,117615
547455,93801,117619
547508,93816,117630
547567,93848,117630
547612,93816,117656
547664,93823,117636
547716,93829,117639
547768,93871,117652
547820,93868,117670
547872,93837,117644
547927,93874,117668
547976,93891,117673
548028,93832,117680
548088,93832,117708
548133,93895,117673
548185,93880,117684
548237,93834,117675
548289,93828,117648
548341,93837,117657
548393,93801,117652
548448,93791,117647
548497,93789,117651
548549,93807,117657
548607,93817,117648
548653,93803,117658
548705,93803,117657
548767,93808,117655
548810,93824,117660
548862,93811,117669
548914,93814,117662
548967,93812,117664
549018,93792,117643
549070,93825,117654
549127,93806,117651
549174,93778,117623
549226,93771,117653
549288,93784,117644
549330,93778,117655
549383,93801,117646
549435,93800,117652
549488,93786,117655
549539,93806,117673
549591,93824,117663
549648,93797,117665
549695,93800,117667
549747,93795,117670
549808,93782,117660
549851,93788,117670
549903,93787,117668
549955,93780,117640
550007,93745,117626
550060,93732,117616
550112,93712,117623
550167,93737,117631
550216,93726,117623
550268,93750,117643
550327,93762,117637
550372,93757,117641
550424,93767,117639
550476,93795,117654
550528,93790,117648
550580,93797,117660
550632,93783,117633
550688,93764,117624
550737,93736,117598
550789,93701,117565
550848,93694,117593
550893,93709,117562
550945,93697,117588
550997,93715,117590
551049,93727,117603
551101,93715,117586
551153,93669,117566
551207,93679,117594
551257,93696,117596
551310,93683,117576
551367,93673,117551
551414,93663,117534
551466,93635,117511
551527,93621,117515
551570,93643,117535
551622,93648,117533
551674,93636,117509
551728,93651,117513
551778,93645,117510
551830,93649,117521
551888,93689,117531
551935,93676,117547
551987,93672,117532
552048,93703,117537
552091,93714,117552
552143,93686,117569
552195,93674,117550
552248,93706,117534
552299,93682,117517
552351,93602,117499
552409,93602,117505
552455,93635,117476
552507,93580,117481
552569,93594,117486
552612,93581,117480
552664,93618,117468
552716,93633,117464
552769,93579,117500
552820,93604,117486
552872,93620,117481
552929,93608,117476
552976,93603,117493
553028,93680,117518
553088,93670,117501
553132,93625,117487
553185,93597,117481
553237,93562,117434
553289,93562,117407
553341,93533,117410
553393,93542,117434
553448,93578,117449
553497,93582,117450
553549,93527,117416
553609,93506,117404
553653,93534,117401
553705,93521,117408
553757,93502,117412
553810,93501,117403
553862,93504,117404
553914,93503,117405
553969,93498,117388
554018,93506,117420
554070,93478,117376
554129,93463,117384
554174,93496,117407
554226,93534,117384
554288,93482,117350
554330,93456,117354
554382,93421,117349
554435,93354,117304
554488,93349,117312
554539,93348,117316
554591,93354,117316
554648,93339,117311
554695,93350,117322
554747,93334,117321
554808,93343,117326
554851,93345,117310
554903,93320,117318
554955,93321,117305
555009,93298,117280
555060,93259,117247
555112,93216,117242
555169,93217,117257
555216,93233,117244
555268,93241,117245
555329,93245,117247
555372,93238,117236
555424,93225,117217
555476,93221,117238
555528,93217,117256
555580,93246,117242
555632,93250,117248
555688,93225,117228
555737,93209,117235
555789,93239,117252
555848,93230,117237
555893,93237,117254
555945,93215,117221
555997,93163,117207
556049,93192,117193
556101,93178,117199
556153,93156,117188
556209,93195,117206
556257,93173,117212
556310,93172,117188
556369,93201,117190
556414,93169,117218
556466,93180,117206
556518,93182,117206
556570,93215,117211
556622,93193,117204
556674,93153,117217
556730,93147,117208
556778,93192,117204
556830,93114,117193
556890,93126,117200
556935,93158,117161
556987,93149,117173
557039,93120,117174
557091,93114,117161
557143,93130,117166
557195,93107,117152
557250,93101,117158
557299,93085,117158
557351,93108,117161
557409,93131,117173
557455,93088,117159
557507,93099,117167
557569,93112,117158
557612,93092,117136
557664,93053,117137
557716,93058,117121
557769,93061,117127
557820,93059,117110
557872,93095,117141
557929,93068,117129
557976,93044,117115
558028,93047,117128
558090,93047,117121
558132,93032,117114
558185,93032,117106
558237,93040,117112
558290,93019,117113
558341,93029,117120
558393,93029,117131
558450,93018,117127
558497,93009,117109
558549,92971,117095
558609,92977,117083
558653,92963,117085
558705,92974,117090
558757,93032,117120
558810,93019,117110
558862,93003,117117
558914,93057,117132
558969,93068,117145
559018,93067,117144
559070,93092,117157
559129,93102,117156
559174,93095,117171
559226,93109,117170
559278,93147,117179
559330,93117,117155
559382,93112,117178
559435,93122,117155
559490,93098,117144
559539,93079,117138
559591,93083,117139
559650,93096,117132
559695,93096,117126
559747,93100,117151
559799,93073,117139
559851,93093,117145
559903,93097,117147
559955,93071,117136
560009,93072,117156
560060,93109,117168
560112,93085,117136
560171,93077,117155
560216,93099,117127
560268,93073,117140
560331,93069,117153
560372,93070,117129
560424,93060,117128
560476,93043,117122
560530,93076,117123
560580,93055,117118
560632,93057,117124
560690,93078,117126
560737,93051,117128
560789,93052,117106
560850,93054,117120
560893,93080,117123
560945,93061,117138
560997,93030,117101
561050,93035,117105
561101,93025,117080
561153,93003,117083
561211,93003,117076
561257,93016,117080
561310,92986,117069
561371,92996,117075
561414,93001,117076
561466,92995,117058
561518,93021,117076
561571,92999,117101
561622,92993,117054
561674,92997,117054
561730,93000,117059
561778,92960,117037
561830,92900,116978
561890,92859,116974
561935,92856,116966
561987,92827,116944
562039,92824,116950
562091,92821,116953
562143,92843,116965
562195,92803,116956
562250,92827,116963
562299,92812,116947
562351,92775,116934
562411,92785,116943
562455,92819,116979
562507,92802,116934
562560,92813,116939
562612,92813,116954
562664,92809,116939
562716,92792,116924
562771,92813,116943
562820,92776,116921
562872,92732,116875
562931,92734,116864
562976,92749,116870
563028,92766,116898
563080,92715,116881
563132,92722,116872
563185,92753,116899
563237,92735,116896
563290,92752,116903
563341,92778,116898
563393,92726,116884
563450,92741,116904
563497,92762,116900
563549,92745,116877
563611,92751,116869
563653,92745,116886
563705,92748,116901
563757,92709,116848
563811,92736,116871
563862,92698,116852
563914,92708,116859
563971,92722,116862
564018,92674,116853
564070,92684,116885
564131,92741,116889
564174,92709,116859
564226,92669,116818
564278,92633,116842
564332,92639,116844
564382,92650,116817
564435,92575,116811
564492,92588,116818
564539,92627,116810
564591,92577,116781
564652,92587,116795
564695,92567,116790
564747,92545,116766
564799,92568,116767
564851,92556,116764
564903,92502,116732
564955,92435,116690
565011,92429,116688
565060,92388,116669
565112,92333,116629
565171,92313,116613
565216,92292,116627
565268,92298,116633
565320,92300,116601
565372,92248,116530
565424,92176,116536
565476,92183,116532
565532,92176,116518
565580,92163,116509
565632,92123,116506
565692,92128,116510
565737,92156,116498
565789,92150,116520
565841,92089,116492
565893,92076,116490
565945,92066,116481
565997,92068,116482
566052,92041,116459
566101,92021,116473
566153,92036,116475
566211,92050,116463
566257,92021,116443
566310,92005,116433
566371,91992,116429
566414,92002,116422
566466,91969,116411
566518,91972,116407
566571,91982,116414
566622,92011,116436
566674,92054,116440
566732,92062,116471
566778,92074,116462
566830,92072,116423
566892,92022,116420
566935,92039,116467
566987,92089,116517
567039,92214,116531
567092,92155,116486
567143,92081,116481
567195,92127,116526
567252,92201,116540
567299,92233,116558
567351,92257,116599
567411,92312,116597
567455,92328,116574
567507,92259,116541
567560,92337,116669
567613,92379,116676
567664,92338,116578
567716,92320,116705
567773,92498,116782
567820,92468,116685
567872,92262,116644
567933,92374,116723
567976,92506,116773
568028,92509,116746
568080,92468,116739
568132,92506,116724
568185,92478,116731
568237,92448,116706
568292,92468,116724
568341,92452,116727
568393,92505,116772
568452,92594,116801
568497,92601,116820
568549,92574,116769
568601,92559,116796
568653,92558,116797
568705,92554,116776
568757,92507,116786
568813,92538,116802
568862,92553,116785
568914,92436,116702
568973,92431,116709
569018,92447,116716
569070,92431,116702
569122,92293,116630
569174,92282,116617
569226,92264,116628
569278,92170,116564
569332,92133,116548
569382,92111,116559
569435,92096,116523
569492,92045,116487
569539,91976,116464
569591,91967,116479
569652,91975,116469
569695,91959,116442
569747,91948,116437
569799,91944,116439
569852,91938,116440
569903,91938,116419
569955,91989,116455
570013,91988,116481
570060,91982,116460
570112,92011,116487
570173,92035,116498
570216,92064,116539
570268,92071,116507
570320,92089,116545
570373,92112,116548
570424,92109,116542
570476,92079,116535
570532,92087,116514
570580,92094,116520
570632,92062,116536
570692,92084,116533
570737,92102,116529
570789,92085,116534
570841,92065,116506
570893,92043,116511
570945,92012,116498
570997,92046,116549
571052,92124,116588
571101,92033,116475
571153,91744,116358
571213,91787,116360
571257,91673,116298
571310,91524,116237
571362,91422,116209
571414,91490,116197
571466,91380,116167
571518,91179,116091
571573,91263,116123
571622,91320,116150
571674,91402,116192
571733,91430,116195
571778,91413,116169
571830,91382,116172
571882,91346,116155
571935,91364,116180
571987,91389,116174
572039,91387,116175
572094,91384,116182
572143,91392,116213
572195,91395,116169
572254,91351,116171
572299,91339,116162
572351,91341,116153
572413,91304,116150
572455,91289,116145
572507,91281,116135
572560,91286,116117
572613,91295,116116
572664,91261,116101
572716,91271,116121
572773,91286,116137
572820,91293,116132
572872,91273,116120
572933,91274,116130
572976,91309,116136
573028,91314,116156
573080,91307,116147
573134,91302,116140
573185,91315,116148
573237,91280,116129
573294,91272,116123
573341,91268,116123
573393,91237,116121
573454,91235,116114
573497,91225,116103
573549,91212,116085
573601,91246,116095
573653,91217,116124
573705,91192,116084
573757,91203,116099
573813,91213,116105
573862,91205,116101
573914,91198,116109
573973,91220,116114
574018,91205,116112
574070,91219,116121
574122,91221,116122
574174,91230,116105
574226,91226,116126
574278,91205,116108
574334,91218,116132
574382,91224,116111
574435,91199,116089
574494,91190,116089
574539,91179,116096
574591,91183,116085
574643,91193,116106
574695,91200,116085
574747,91207,116106
574799,91189,116099
574854,91214,116094
574903,91212,116105
574955,91188,116087
575013,91187,116090
575060,91212,116088
575112,91214,116106
575173,91203,116096
575216,91199,116094
575268,91222,116120
575320,91204,116141
575375,91181,116119
575424,91163,116100
575476,91155,116113
575534,91172,116096
575580,91132,116096
575632,91153,116113
575694,91183,116120
575737,91176,116099
575789,91143,116137
575841,91155,116117
575894,91172,116112
575945,91143,116109
575997,91183,116123
576054,91180,116126
576101,91161,116132
576153,91155,116132
576215,91153,116132
576257,91149,116130
576310,91172,116136
576362,91156,116142
576415,91129,116133
576466,91141,116131
576518,91131,116126
576575,91096,116118
576622,91117,116121
576674,91120,116128
576735,91115,116117
576778,91121,116138
576830,91121,116125
576882,91126,116118
576935,91129,116111
576987,91130,116147
577039,91128,116153
577094,91138,116149
577143,91131,116158
