Millis,Red,IR
100023,59172,103040
100073,59171,103033
100124,59187,103023
100184,59190,103030
100226,59191,103035
100277,59171,103025
100328,59154,103024
100384,59191,103017
100431,59188,103021
100482,59170,103001
100543,59159,103001
100584,59181,103036
100635,59174,103017
100686,59153,102989
100743,59175,103007
100788,59158,103010
100839,59187,103015
100890,59160,102992
100943,59176,103012
100992,59189,103002
101043,59121,102983
101104,59155,103005
101145,59140,102976
101196,59165,102978
101247,59123,102985
101305,59107,102999
101349,59127,102975
101400,59169,102983
101451,59128,102983
101505,59130,102987
101553,59129,102978
101604,59140,102986
101664,59167,102979
101707,59142,102962
101758,59121,102957
101809,59122,102946
101864,59149,102954
101911,59162,102950
101962,59130,102950
102013,59162,102952
102064,59161,102965
102115,59156,102918
102166,59162,102944
102225,59145,102944
102268,59167,102944
102319,59142,102970
102370,59154,102920
102425,59140,102923
102472,59169,102928
102523,59161,102915
102585,59153,102913
102625,59178,102930
102676,59182,102921
102727,59185,102912
102785,59174,102918
102829,59183,102894
102881,59197,102914
102932,59196,102898
102985,59183,102900
103034,59183,102889
103085,59205,102862
103144,59204,102866
103187,59197,102867
103238,59207,102885
103289,59209,102878
103344,59222,102884
103391,59225,102888
103442,59228,102879
103493,59232,102871
103544,59237,102880
103595,59227,102852
103646,59237,102858
103705,59227,102850
103748,59244,102843
103799,59243,102862
103850,59240,102842
103904,59258,102849
103952,59270,102836
104003,59274,102822
104065,59274,102842
104106,59277,102826
104157,59274,102820
104208,59316,102822
104265,59287,102813
104310,59290,102827
104361,59284,102812
104412,59293,102791
104465,59300,102796
104514,59304,102798
104565,59300,102791
104624,59318,102785
104667,59327,102803
104718,59316,102794
104769,59311,102781
104824,59322,102768
104871,59353,102789
104922,59344,102791
104973,59331,102756
105025,59353,102748
105075,59355,102742
105126,59324,102726
105184,59351,102740
105228,59342,102752
105279,59383,102772
105331,59345,102762
105386,59353,102758
105433,59351,102749
105484,59376,102752
105545,59394,102763
105586,59359,102722
105637,59351,102726
105688,59378,102736
105745,59377,102732
105790,59386,102744
105841,59396,102706
105892,59368,102725
105945,59395,102715
105994,59365,102707
106045,59376,102707
106106,59380,102707
106147,59404,102702
106198,59371,102713
106249,59391,102700
106305,59392,102699
106351,59396,102683
106402,59375,102675
106453,59373,102661
106505,59389,102672
106555,59400,102676
106607,59400,102672
106666,59374,102657
106709,59387,102670
106760,59407,102666
106811,59411,102673
106866,59394,102672
106913,59389,102653
106964,59416,102665
107025,59406,102643
107066,59392,102610
107117,59393,102635
107168,59416,102623
107225,59405,102628
107270,59408,102651
107321,59417,102618
107372,59410,102633
107426,59410,102626
107474,59407,102635
107525,59421,102617
107585,59414,102628
107627,59427,102613
107678,59411,102630
107729,59389,102622
107785,59412,102614
107832,59407,102603
107883,59395,102599
107934,59417,102611
107985,59413,102604
108036,59415,102587
108087,59421,102596
108146,59408,102595
108189,59412,102611
108240,59417,102599
108291,59436,102597
108346,59427,102602
108393,59423,102592
108444,59404,102588
108505,59412,102575
108546,59412,102547
108597,59400,102570
108648,59409,102575
108706,59413,102561
108750,59422,102582
108801,59404,102540
108852,59404,102559
108906,59410,102583
108954,59417,102561
109005,59383,102559
109065,59400,102556
109108,59424,102540
109159,59417,102556
109210,59389,102531
109265,59395,102550
109312,59390,102534
109363,59422,102540
109414,59412,102532
109465,59386,102531
109516,59389,102547
109567,59402,102530
109626,59403,102531
109669,59391,102539
109720,59426,102551
109771,59373,102513
109826,59404,102531
109873,59363,102526
109924,59358,102511
109986,59387,102531
110027,59361,102512
110077,59372,102526
110128,59366,102534
110186,59391,102544
110230,59399,102531
110282,59351,102521
110333,59376,102539
110386,59390,102525
110435,59389,102521
110486,59341,102512
110547,59343,102508
110588,59381,102510
110639,59392,102521
110690,59372,102511
110747,59364,102524
110792,59388,102517
110843,59359,102508
110894,59383,102498
110947,59358,102518
110996,59377,102514
111047,59362,102495
111107,59346,102501
111149,59337,102497
111200,59353,102492
111251,59345,102493
111307,59336,102503
111353,59332,102495
111404,59341,102500
111466,59352,102502
111507,59328,102477
111558,59326,102497
111609,59352,102504
111666,59336,102497
111711,59338,102490
111762,59319,102472
111813,59317,102469
111866,59319,102470
111915,59325,102472
111966,59283,102469
112027,59283,102463
112068,59306,102472
112119,59294,102471
112170,59321,102464
112227,59302,102440
112272,59281,102438
112323,59281,102450
112374,59330,102454
112426,59297,102449
112476,59274,102456
112527,59275,102454
112587,59272,102453
112629,59272,102449
112680,59274,102448
112732,59270,102445
112787,59254,102439
112834,59243,102439
112885,59258,102448
112946,59267,102453
112987,59255,102420
113038,59239,102433
113089,59250,102435
113146,59242,102435
113191,59259,102436
113242,59242,102406
113293,59249,102442
113346,59253,102425
113395,59239,102418
113446,59227,102407
113507,59239,102427
113548,59228,102427
113599,59230,102426
113650,59233,102430
113706,59216,102433
113752,59214,102388
113803,59212,102395
113854,59221,102399
113906,59205,102402
113957,59207,102433
114008,59226,102425
114067,59220,102379
114110,59195,102403
114161,59190,102408
114212,59224,102408
114267,59223,102387
114314,59207,102401
114365,59211,102385
114426,59187,102379
114467,59197,102362
114518,59183,102390
114569,59169,102353
114626,59188,102350
114671,59189,102386
114722,59177,102379
114773,59169,102363
114827,59178,102358
114875,59174,102379
114926,59132,102385
114988,59145,102387
115028,59192,102387
115079,59189,102377
115130,59123,102375
115188,59110,102361
115233,59113,102352
115284,59160,102369
115335,59128,102358
115388,59108,102357
115437,59112,102380
115488,59118,102366
115547,59135,102358
115590,59103,102349
115641,59100,102357
115692,59103,102353
115747,59094,102346
115794,59089,102327
115845,59111,102330
115908,59080,102342
115947,59097,102351
115998,59070,102340
116049,59083,102337
116107,59091,102335
116151,59084,102336
116202,59063,102319
116253,59074,102334
116307,59071,102331
116355,59067,102337
116407,59069,102337
116468,59059,102335
116509,59064,102341
116560,59067,102328
116611,59052,102328
116668,59069,102346
116713,59077,102330
116764,59077,102335
116815,59073,102327
116868,59067,102339
116917,59065,102350
116968,59061,102328
117027,59051,102319
117070,59035,102317
117121,59041,102311
117172,59012,102321
117228,59012,102318
117274,59025,102313
117325,59044,102326
117387,59033,102321
117428,59027,102340
117478,59015,102312
117529,59031,102328
117587,59021,102323
117632,59027,102305
117683,59014,102321
117734,58990,102291
117787,58983,102298
117836,59000,102292
117887,58992,102284
117948,58976,102302
117989,58990,102287
118040,58988,102290
118091,58977,102287
118148,58974,102308
118193,58976,102281
118244,58976,102282
118295,58969,102273
118348,58953,102278
118397,58949,102270
118448,58952,102253
118508,58951,102259
118550,58937,102264
118601,58945,102272
118652,58914,102269
118708,58926,102258
118754,58938,102259
118805,58942,102262
118867,58921,102258
118908,58925,102276
118959,58928,102240
119010,58891,102239
119067,58911,102248
119112,58900,102232
119163,58913,102251
119214,58901,102234
119267,58893,102235
119316,58890,102238
119367,58890,102232
119428,58895,102220
119469,58879,102225
119520,58888,102218
119571,58852,102211
119628,58879,102205
119673,58864,102212
119724,58891,102229
119775,58854,102205
119827,58874,102221
119877,58872,102228
119928,58874,102222
119988,58890,102216
120030,58894,102222
120082,58851,102236
120133,58848,102234
120188,58883,102243
120235,58879,102226
120286,58843,102234
120337,58858,102233
120388,58871,102248
120439,58873,102218
120490,58826,102225
120549,58828,102223
120592,58856,102218
120643,58821,102234
120694,58835,102217
120749,58813,102208
120796,58830,102205
120847,58800,102206
120908,58823,102205
120949,58794,102203
121000,58819,102208
121051,58802,102204
121109,58794,102207
121153,58794,102194
121204,58820,102207
121255,58796,102197
121309,58788,102200
121358,58774,102198
121409,58794,102191
121468,58794,102188
121511,58771,102184
121562,58766,102196
121613,58769,102191
121668,58766,102192
121715,58774,102199
121766,58766,102199
121817,58761,102186
121868,58764,102213
121919,58754,102160
121970,58748,102180
122029,58729,102169
122072,58742,102175
122123,58745,102207
122174,58751,102180
122228,58738,102178
122276,58736,102178
122327,58725,102172
122389,58727,102157
122429,58732,102173
122480,58738,102173
122531,58717,102148
122589,58687,102143
122634,58700,102131
122685,58709,102160
122736,58704,102156
122789,58697,102160
122838,58695,102160
122889,58698,102161
122948,58716,102176
122991,58720,102177
123042,58728,102167
123093,58692,102174
123148,58721,102178
123195,58715,102186
123246,58726,102179
123297,58716,102176
123348,58705,102184
123399,58700,102141
123450,58718,102185
123508,58719,102188
123552,58718,102176
123603,58699,102196
123654,58710,102177
123708,58704,102168
123756,58700,102172
123808,58703,102164
123869,58697,102172
123910,58690,102163
123961,58679,102149
124012,58693,102151
124069,58680,102146
124114,58682,102164
124165,58681,102157
124216,58674,102161
124269,58690,102170
124318,58675,102173
124369,58658,102168
124428,58673,102169
124471,58696,102187
124522,58673,102172
124573,58652,102153
124629,58670,102152
124675,58683,102168
124726,58653,102160
124777,58654,102160
124829,58681,102156
124879,58669,102151
124930,58640,102145
124988,58659,102145
125033,58646,102154
125084,58670,102189
125135,58624,102167
125190,58622,102157
125237,58623,102160
125288,58621,102152
125349,58648,102164
125390,58598,102145
125441,58600,102151
125492,58624,102171
125549,58629,102175
125594,58600,102169
125645,58645,102162
125696,58604,102164
125749,58635,102159
125798,58592,102152
125849,58597,102154
125909,58607,102152
125951,58619,102157
126002,58571,102145
126053,58578,102148
126109,58602,102158
126155,58599,102147
126206,58570,102150
126258,58585,102143
126309,58591,102149
126360,58591,102132
126411,58580,102142
126470,58567,102136
126513,58559,102144
126564,58571,102153
126615,58541,102138
126670,58547,102158
126717,58550,102148
126768,58562,102150
126829,58562,102145
126870,58538,102121
126921,58543,102120
126972,58569,102148
127029,58541,102145
127074,58531,102170
127125,58527,102133
127176,58524,102139
127230,58521,102137
127278,58514,102142
127329,58514,102127
127389,58515,102134
127431,58513,102132
127483,58511,102139
127534,58507,102123
127589,58511,102122
127636,58515,102145
127687,58514,102149
127738,58503,102129
127789,58514,102139
127840,58521,102131
127891,58496,102141
127950,58513,102133
127993,58512,102137
128044,58505,102146
128095,58504,102142
128150,58500,102149
128197,58503,102136
128248,58509,102142
128310,58495,102139
128350,58490,102123
128401,58498,102124
128452,58498,102128
128510,58471,102133
128554,58475,102159
128605,58489,102127
128656,58485,102120
128710,58472,102134
128759,58472,102131
128810,58486,102129
128869,58474,102113
128912,58466,102113
128963,58456,102116
129014,58465,102118
129069,58452,102127
129116,58460,102104
129167,58447,102119
129218,58443,102110
129269,58455,102107
129320,58447,102107
129371,58456,102107
129430,58448,102107
129473,58443,102103
129524,58447,102104
129575,58432,102105
129629,58432,102111
129677,58434,102096
129728,58442,102091
129790,58441,102095
129830,58434,102076
129881,58429,102097
129933,58447,102089
129990,58434,102081
130035,58448,102129
130086,58419,102080
130137,58419,102085
130190,58431,102076
130239,58417,102082
130290,58393,102092
130351,58388,102082
130392,58417,102086
130443,58381,102088
130494,58371,102089
130551,58382,102093
130596,58426,102097
130647,58377,102101
130698,58401,102102
130750,58401,102077
130800,58397,102060
130851,58377,102079
130911,58371,102090
130953,58368,102086
131004,58404,102080
131055,58377,102072
131111,58368,102082
131158,58356,102068
131209,58370,102077
131270,58385,102074
131311,58364,102066
131362,58355,102071
131413,58359,102072
131470,58363,102066
131515,58345,102069
131566,58329,102039
131617,58357,102054
131670,58346,102060
131719,58320,102061
131770,58337,102051
131831,58312,102055
131872,58330,102035
131923,58318,102065
131974,58327,102050
132030,58336,102058
132076,58332,102059
132127,58308,102043
132178,58319,102047
132230,58320,102048
132280,58311,102033
132331,58300,102041
132391,58301,102037
132434,58299,102041
132485,58305,102051
132536,58298,102041
132591,58295,102029
132638,58286,102026
132689,58290,102035
132750,58281,102044
132791,58270,102018
132842,58266,102028
132893,58260,102032
132950,58261,102034
132995,58254,102045
133046,58279,102027
133097,58271,102032
133150,58257,102024
133199,58260,102028
133250,58249,102035
133310,58248,102025
133352,58248,102017
133403,58254,102033
133454,58246,102022
133510,58237,102024
133556,58232,102002
133608,58234,102003
133659,58243,102018
133710,58234,102014
133761,58228,102024
133812,58245,102015
133871,58227,101999
133914,58242,102032
133965,58236,102024
134016,58237,102023
134071,58243,102023
134118,58234,102025
134169,58216,102015
134230,58214,102013
134271,58239,101994
134322,58228,102024
134373,58232,102013
134431,58255,102001
134475,58254,102025
134526,58232,102026
134577,58221,102003
134631,58242,102027
134679,58244,102030
134730,58198,102027
134792,58210,102026
134833,58245,102028
134884,58229,102015
134935,58208,102029
134992,58179,102021
135037,58184,101998
135088,58228,102011
135139,58223,102024
135192,58187,102020
135241,58182,102045
135292,58200,102038
135351,58216,102017
135394,58170,102023
135445,58216,102026
135496,58197,102008
135551,58190,102021
135598,58174,102001
135649,58200,102007
135711,58196,102015
135751,58193,102000
135802,58163,102010
135853,58186,102014
135911,58188,102015
135955,58184,102016
136006,58154,101994
136058,58172,101995
136111,58165,101996
136160,58164,102005
136211,58151,102011
136272,58154,101997
136313,58161,102001
136364,58164,102008
136415,58158,102012
136472,58157,102001
136517,58145,101985
136568,58146,102016
136619,58164,101993
136672,58152,102003
136721,58152,102025
136772,58137,101985
136831,58144,101990
136874,58139,101995
136925,58141,101992
136976,58130,101997
137032,58116,101997
137078,58127,101977
137129,58140,102008
137191,58123,102002
137232,58113,102009
137283,58120,101989
137334,58126,102008
137391,58129,102007
137436,58114,101981
137487,58094,101973
137538,58117,101989
137591,58113,101983
137640,58105,101978
137691,58111,101971
137752,58096,101979
137793,58103,101978
137844,58097,101975
137895,58093,101970
137952,58085,101986
137997,58087,101948
138048,58088,102007
138099,58076,101959
138151,58074,101962
138201,58067,101965
138252,58086,101963
138312,58077,101964
138354,58086,101976
138405,58068,101970
138456,58050,101958
138512,58075,101948
138559,58083,101961
138610,58075,101953
138671,58056,101951
138712,58065,101980
138763,58064,101951
138814,58041,101939
138871,58060,101949
138916,58048,101942
138967,58072,101964
139018,58040,101959
139073,58034,101950
139120,58074,101955
139171,58013,101962
139232,58032,101962
139273,58011,101948
139324,58050,101940
139375,57984,101944
139433,57979,101934
139477,57977,101922
139528,58015,101931
139579,57996,101945
139633,57986,101948
139681,57985,101936
139732,57996,101942
139792,58004,101931
139835,57984,101930
139886,57977,101934
139937,57973,101930
139992,57993,101932
140039,57999,101942
140090,57971,101925
140141,57979,101924
140192,57984,101952
140243,57970,101908
140294,57971,101933
140353,57965,101926
140396,57967,101938
140447,57957,101951
140498,57966,101928
140553,57956,101925
140600,57963,101935
140651,57939,101925
140713,57945,101921
140753,57950,101917
140804,57949,101916
140855,57958,101919
140913,57953,101915
140957,57949,101898
141009,57950,101928
141060,57949,101913
141113,57948,101928
141162,57946,101922
141213,57938,101929
141272,57933,101912
141315,57919,101903
141366,57918,101915
141417,57907,101911
141472,57921,101911
141519,57917,101919
141570,57923,101909
141621,57920,101916
141672,57918,101916
141723,57900,101890
141774,57927,101910
141832,57914,101907
141876,57916,101898
141927,57903,101926
141978,57900,101909
142032,57905,101911
142080,57908,101901
142131,57911,101895
142193,57922,101901
142234,57903,101892
142285,57894,101897
142336,57930,101903
142393,57906,101897
142438,57909,101935
142489,57904,101909
142540,57892,101899
142593,57915,101898
142642,57908,101909
142693,57879,101885
142752,57894,101879
142795,57902,101903
142846,57885,101897
142897,57853,101862
142952,57867,101865
142999,57895,101884
143050,57852,101893
143101,57863,101891
143153,57891,101887
143203,57882,101882
143254,57846,101901
143314,57841,101892
143356,57832,101896
143407,57878,101888
143459,57836,101875
143514,57821,101885
143561,57832,101872
143612,57851,101895
143673,57863,101886
143714,57828,101859
143765,57824,101879
143816,57856,101889
143873,57852,101894
143918,57839,101912
143969,57829,101873
144020,57827,101876
144073,57821,101873
144122,57801,101875
144173,57819,101869
144234,57786,101881
144275,57815,101881
144326,57810,101890
144377,57791,101868
144433,57806,101875
144479,57805,101879
144530,57798,101873
144581,57801,101882
144633,57800,101869
144684,57789,101850
144735,57783,101870
144794,57786,101853
144837,57782,101864
144888,57782,101857
144939,57762,101843
144994,57765,101841
145041,57763,101838
145092,57767,101846
145153,57773,101856
145194,57771,101840
145245,57769,101855
145296,57763,101846
145353,57750,101849
145398,57750,101867
145449,57762,101830
145500,57760,101859
145554,57755,101849
145602,57754,101853
145653,57756,101866
145713,57753,101854
145755,57756,101841
145806,57753,101859
145857,57757,101862
145913,57773,101861
145960,57762,101856
146011,57765,101852
146062,57774,101854
146113,57760,101851
146164,57765,101845
146215,57766,101853
146274,57753,101840
146317,57758,101858
146368,57754,101862
146419,57753,101853
146474,57767,101849
146521,57758,101848
146572,57736,101848
146633,57747,101842
146674,57763,101847
146725,57748,101860
146776,57757,101850
146834,57763,101835
146878,57773,101859
146929,57749,101842
146980,57748,101853
147034,57766,101863
147082,57777,101859
147134,57717,101836
147193,57740,101838
147236,57765,101827
147287,57772,101858
147338,57726,101850
147395,57736,101838
147440,57725,101831
147491,57764,101840
147542,57750,101858
147595,57711,101852
147644,57765,101858
147695,57718,101844
147754,57738,101837
147797,57700,101839
147848,57740,101835
147899,57713,101834
147955,57693,101841
148001,57702,101830
148052,57711,101836
148114,57716,101824
148155,57693,101817
148205,57690,101815
148256,57688,101813
148314,57699,101820
148359,57692,101811
148410,57669,101804
148461,57674,101799
148514,57685,101797
148563,57692,101808
148614,57659,101794
148675,57662,101803
148716,57688,101822
148767,57695,101805
148818,57666,101799
148875,57661,101800
148920,57668,101779
148971,57664,101789
149022,57680,101782
149075,57652,101786
149124,57665,101818
149175,57660,101783
149235,57676,101793
149277,57669,101783
149328,57655,101794
149379,57668,101796
149435,57658,101796
149481,57641,101778
149532,57656,101785
149594,57641,101776
149635,57633,101770
149686,57643,101780
149737,57652,101778
149794,57647,101791
149839,57646,101778
149890,57629,101758
149941,57646,101781
149994,57645,101779
150043,57651,101780
150094,57625,101748
150155,57624,101765
150196,57636,101756
150247,57628,101754
150298,57627,101752
150355,57626,101781
150400,57629,101740
150451,57626,101763
150502,57629,101765
150554,57635,101774
150604,57645,101792
150655,57650,101783
150715,57660,101795
150757,57684,101805
150809,57662,101797
150860,57669,101805
150915,57692,101800
150962,57694,101809
151013,57695,101808
151074,57685,101807
151115,57701,101819
151166,57696,101825
151217,57686,101804
151274,57690,101803
151319,57695,101828
151370,57679,101819
151421,57676,101826
151476,57665,101815
151523,57702,101820
151574,57657,101828
151636,57646,101831
151676,57651,101812
151727,57698,101829
151778,57656,101835
151836,57653,101836
151880,57658,101824
151931,57697,101803
151982,57667,101823
152036,57654,101819
152085,57648,101816
152136,57653,101815
152195,57674,101819
152238,57655,101810
152289,57648,101817
152340,57646,101822
152395,57671,101821
152442,57684,101806
152493,57684,101805
152556,57632,101815
152595,57668,101833
152646,57640,101803
152697,57651,101797
152756,57628,101796
152799,57651,101798
152850,57629,101800
152901,57640,101802
152955,57648,101799
153003,57644,101808
153054,57639,101802
153116,57627,101808
153156,57650,101810
153207,57644,101807
153259,57637,101795
153316,57639,101804
153361,57638,101796
153412,57649,101806
153463,57633,101806
153516,57630,101817
153565,57638,101815
153616,57641,101798
153675,57640,101806
153718,57641,101795
153769,57639,101815
153820,57619,101800
153875,57627,101805
153922,57634,101809
153973,57637,101802
154024,57632,101802
154075,57632,101833
154126,57627,101793
154177,57626,101806
154235,57627,101815
154279,57632,101816
154330,57620,101840
154381,57623,101826
154435,57620,101825
154484,57633,101818
154535,57611,101824
154596,57607,101817
154637,57623,101814
154688,57615,101805
154739,57610,101794
154796,57611,101806
154841,57616,101798
154892,57613,101806
154943,57613,101791
154996,57605,101807
155045,57614,101810
155096,57620,101807
155155,57610,101800
155198,57618,101799
155249,57602,101804
155300,57582,101792
155356,57623,101795
155402,57611,101814
155453,57598,101800
155504,57604,101804
155556,57615,101808
155606,57610,101783
155657,57601,101795
155715,57605,101784
155760,57585,101794
155811,57618,101828
155862,57579,101763
155915,57582,101785
155964,57585,101790
156015,57576,101769
156076,57607,101768
156117,57568,101772
156168,57565,101783
156219,57589,101786
156276,57589,101789
156321,57547,101777
156372,57610,101801
156423,57560,101791
156476,57569,101771
156525,57534,101777
156576,57545,101759
156636,57542,101767
156678,57534,101774
156729,57538,101763
156780,57502,101751
156836,57548,101773
156882,57560,101760
156933,57519,101747
156985,57525,101757
157036,57541,101752
157087,57534,101732
157138,57520,101737
157197,57513,101746
157240,57508,101749
157291,57521,101766
157342,57494,101743
157397,57493,101743
157444,57493,101728
157495,57448,101718
157556,57486,101720
157597,57473,101723
157648,57473,101715
157699,57485,101716
157756,57460,101709
157801,57446,101708
157852,57442,101679
157903,57386,101653
157957,57359,101639
158005,57358,101648
158056,57375,101652
158116,57383,101654
158158,57394,101670
158210,57411,101674
158261,57414,101662
158316,57423,101665
158363,57427,101674
158414,57424,101673
158465,57411,101659
158516,57432,101676
158567,57433,101669
158618,57425,101684
158677,57424,101668
158720,57429,101677
158771,57423,101682
158822,57409,101695
158877,57430,101696
158924,57427,101669
158975,57401,101670
159037,57404,101673
159077,57411,101649
159128,57409,101658
159179,57438,101659
159237,57400,101665
159281,57395,101696
159332,57408,101658
159383,57410,101653
159437,57394,101658
159486,57381,101660
159537,57395,101653
159596,57403,101640
159639,57382,101640
159690,57383,101639
159741,57386,101644
159796,57386,101657
159843,57380,101643
159894,57389,101643
159945,57359,101647
159996,57388,101646
160047,57386,101637
160098,57382,101633
160157,57374,101635
160200,57373,101621
160251,57386,101629
160302,57382,101628
160356,57388,101642
160404,57380,101627
160455,57385,101623
160517,57387,101624
160557,57382,101602
160608,57376,101635
160660,57396,101621
160717,57404,101612
160762,57413,101669
160813,57364,101600
160864,57359,101623
160917,57391,101628
160966,57396,101626
161017,57345,101637
161078,57347,101647
161119,57446,101661
161170,57458,101697
161221,57468,101691
161278,57447,101678
161323,57468,101671
161374,57415,101660
161425,57410,101648
161477,57418,101674
161527,57468,101676
161578,56844,101339
161638,56394,101235
161680,56073,101237
161731,55712,101355
161782,55341,101557
161838,55222,101619
161885,55150,101646
161936,55102,101611
161997,55087,101575
162038,55032,101541
162089,55008,101532
162140,55008,101499
162197,55014,101467
162242,55034,101469
162293,55048,101407
162344,55159,101385
162397,55212,101308
162446,55284,101194
162497,55569,101031
162558,55675,101013
162599,55740,101044
162650,55958,101157
162701,56083,101217
162757,56397,101269
162803,56578,101733
162854,57899,102508
162905,58035,102694
162957,59345,103623
163007,59466,103536
163058,59815,103832
163118,59909,103975
163161,59933,103877
163212,59881,103912
163263,60036,104053
163318,60082,104070
163365,60069,104159
163416,60339,104037
163477,59519,103200
163518,58707,102750
163569,58185,102501
163620,57613,102240
163677,57243,102116
163722,56932,102079
163773,56720,102042
163824,56387,102152
163877,56214,102210
163926,56100,102287
163977,55897,102239
164037,55848,102183
164079,55803,102157
164130,55774,102129
164181,55737,102080
164237,55732,102032
164283,55724,101931
164335,55752,101887
164386,55844,101758
164437,55867,101757
164488,55884,101740
164539,56101,101620
164598,56284,101632
164641,56446,101678
164692,56670,101778
164743,56757,101823
164798,56809,101874
164845,56809,101899
164896,57062,101983
164957,57150,102042
164998,57479,102356
165049,57814,102392
165100,58523,103067
165158,58907,103458
165202,59423,103907
165253,59881,104466
165304,60328,103670
165358,58954,103110
165406,58748,103003
165457,57755,102439
165519,57445,102335
165560,57203,102295
165611,57002,102291
165662,56673,102341
165719,56581,102397
165764,56506,102397
165815,56444,102393
165866,56306,102356
165919,56233,102352
165968,56186,102352
166019,56141,102257
166078,56142,102195
166121,56108,102144
166172,56131,102086
166223,56179,101919
166278,56219,101862
166325,56256,101811
166376,56521,101808
166438,56578,101802
166478,56712,101895
166529,56817,101927
166580,57167,102296
166638,57679,102507
166682,57826,102477
166733,57707,102571
166785,58218,102817
166838,58140,102832
166887,58299,103014
166938,58919,103403
166999,59026,103627
167040,59234,103956
167091,60047,104616
167142,60806,105138
167199,61411,105540
167244,61748,105682
167295,61988,105990
167346,62355,105370
167399,60938,104615
167448,60292,104194
167499,58790,103118
167558,58389,102950
167601,58095,102859
167652,57865,102809
167703,57511,102739
167759,57361,102763
167805,57231,102737
167856,57022,102723
167918,56939,102669
167959,56896,102673
168010,56839,102636
168061,56693,102641
168118,56638,102612
168163,56580,102578
168214,56547,102567
168265,56500,102380
168318,56527,102262
168367,56578,102160
168418,56862,102133
168479,57042,102179
168520,57341,102313
168571,57623,102433
168622,58211,103081
168679,58580,103096
168724,58570,103362
168775,59636,104731
168826,60607,104846
168878,61047,105759
168928,62732,106659
168979,61419,105195
169039,61718,106180
169081,63008,106462
169132,61592,104789
169183,60681,104834
169239,60709,104905
169286,61037,105449
169337,62056,106109
169388,62108,105267
169439,60787,104567
169490,59993,103977
169541,59017,103344
169600,58538,103192
169643,58248,103132
169694,58000,103091
169745,57656,103060
169800,57513,103050
169847,57411,103048
169898,57194,103043
169959,57128,102993
170000,57025,102973
170051,56968,102929
170102,56867,102856
170160,56813,102845
170204,56777,102804
170255,56761,102767
170306,56776,102546
170360,56842,102405
170408,57054,102403
170460,57323,102438
170519,57653,102579
170562,57766,102604
170613,57909,102690
170664,58179,103119
170719,58819,103489
170766,59309,103918
170817,59778,104350
170868,61343,105348
170919,61043,105015
170970,61156,105880
171021,63246,106593
171080,62211,105405
171123,61338,105516
171174,62110,106257
171225,61754,105844
171280,62353,106286
171327,62542,106271
171378,63011,106815
171440,63433,106954
171480,63004,105994
171531,61408,104826
171582,59860,103969
171640,59136,103438
171685,58642,103382
171736,58414,103286
171787,57977,103242
171840,57814,103241
171889,57664,103252
171940,57515,103299
171999,57472,103277
172042,57425,103252
172093,57377,103215
172144,57241,103144
172199,57213,103099
172246,57162,103042
172297,57144,102990
172348,57178,102857
172399,57247,102782
172450,57340,102764
172501,57355,102677
172559,57555,102726
172603,57721,102709
172654,57983,102884
172705,58369,102963
172759,58371,103245
172807,59423,104571
172858,60210,104604
172920,60991,105900
172961,62417,106286
173012,62319,106259
173063,63340,106870
173120,63034,106616
173165,63168,107592
173216,64476,107486
173267,63622,107327
173320,64025,107392
173369,63905,107357
173420,64249,107234
173481,62799,105734
173522,61408,105005
173573,60664,104556
173624,59236,103614
173681,58899,103551
173726,58677,103475
173777,58393,103433
173828,58141,103416
173880,58027,103434
173930,57937,103427
173981,57779,103413
174041,57723,103387
174083,57660,103355
174134,57598,103304
174186,57479,103219
174241,57435,103178
174288,57407,103115
174339,57423,103004
174400,57435,102917
174441,57491,102827
174492,57612,102826
174543,57908,102878
174600,58289,103113
174645,58720,103264
174696,58829,103411
174747,59660,104150
174800,60247,104894
174849,61308,105520
174900,61751,105947
174961,62450,106378
175002,63070,107251
175053,64574,108196
175104,63295,106611
175160,63841,108504
175206,65910,108094
175257,63958,107000
175308,64640,108076
175360,64674,107729
175411,64371,107804
175462,64551,107344
175521,63226,106105
175564,61893,105311
175615,61133,104876
175666,59504,103770
175721,59182,103679
175768,58903,103590
175819,58412,103515
175880,58233,103492
175921,58137,103467
175972,58109,103472
176023,57915,103460
176080,57835,103411
176125,57749,103377
176176,57695,103293
176227,57605,103237
176281,57558,103215
176329,57545,103169
176380,57555,102979
176440,57626,102841
176482,57824,102875
176533,58191,102977
176584,58599,103227
176640,59354,104081
176687,59789,103932
176738,59733,104371
176789,62923,106262
176840,62114,105806
176891,61954,105942
176942,63289,106933
177001,63383,106722
177044,63005,106575
177095,63388,107175
177146,63613,107052
177201,63831,107363
177248,64150,107525
177299,64352,107654
177360,64459,107670
177401,64449,107587
177452,64360,107564
177503,64407,107615
177561,64449,107626
177605,64461,107628
177656,64430,107605
177707,64481,107630
177761,64490,107635
177809,64457,107603
177861,64361,107556
177922,64350,107528
177963,64391,107512
178014,64390,107535
178065,64365,107540
178122,64358,107525
178167,64350,107512
178218,64377,107474
178269,64293,107427
178322,64248,107437
178371,64316,107465
178422,64248,107376
178481,64194,107330
178524,64157,107330
178575,64214,107330
178626,64145,107286
178682,64137,107304
178728,64121,107266
178779,64110,107263
178841,64129,107236
178882,64082,107187
178932,64017,107171
178983,64063,107203
179041,64078,107162
179086,64024,107116
179137,63949,107064
179188,63964,107099
179241,63987,107077
179290,63960,107066
179341,63919,107042
179402,63895,106997
179443,63877,107004
179494,63873,106995
179545,63893,106986
179602,63852,106963
179647,63846,106926
179698,63819,106897
179749,63789,106871
179802,63769,106869
179851,63758,106872
179902,63710,106820
179962,63727,106834
180004,63727,106817
180055,63705,106791
180106,63712,106800
180162,63682,106771
180208,63644,106731
180259,63628,106708
180321,63589,106677
180362,63566,106676
180413,63588,106692
180464,63568,106649
180521,63536,106648
180566,63561,106654
180617,63545,106594
180668,63494,106614
180721,63536,106629
180770,63528,106584
180821,63447,106553
180882,63458,106543
180923,63434,106502
180974,63402,106501
181025,63408,106479
181082,63371,106468
181127,63356,106456
181178,63386,106482
181229,63353,106434
181281,63331,106439
181331,63361,106487
181382,63312,106389
181442,63277,106382
181484,63280,106383
181536,63267,106366
181587,63240,106329
181642,63186,106288
181689,63218,106311
181740,63232,106303
181801,63177,106269
181842,63182,106275
181893,63169,106273
181944,63115,106222
182001,63141,106243
182046,63177,106241
182097,63087,106163
182148,63039,106158
182201,63069,106174
182250,63067,106166
182301,62969,106131
182363,62968,106136
182403,62981,106122
182454,63002,106113
182505,62936,106113
182563,62944,106109
182607,62929,106085
182658,62954,106243
182709,62844,106004
182763,62837,106006
182812,62832,105996
182863,62813,105979
182922,62840,105989
182965,62840,106003
183016,62860,106036
183067,62853,106002
183122,62796,105923
183169,62776,105930
183220,62756,105863
183283,62656,105839
183322,62676,105882
183373,62695,105906
183424,62772,105921
183483,62761,105922
183526,62777,105912
183577,62712,105856
183628,62653,105837
183682,62700,105880
183730,62734,105892
183781,62608,105782
183843,62571,105768
183883,62598,105789
183934,62616,105785
183986,62508,105704
184043,62511,105718
184088,62543,105720
184139,62550,105721
184190,62499,105677
184243,62479,105672
184292,62489,105697
184343,62498,105661
184402,62452,105647
184445,62416,105614
184496,62394,105592
184547,62342,105592
184602,62367,105587
184649,62364,105601
184700,62374,105577
184751,62360,105590
184803,62367,105607
184853,62341,105535
184904,62264,105507
184962,62275,105528
185006,62281,105505
185057,62243,105513
185108,62222,105481
185162,62217,105443
185211,62205,105454
185262,62217,105459
185323,62204,105427
185364,62123,105389
185415,62130,105400
185466,62166,105395
185523,62124,105371
185568,62106,105379
185619,62108,105391
185670,62071,105348
185723,62082,105343
185772,62047,105326
185823,62033,105320
185882,62055,105316
185925,62036,105299
185976,61974,105278
186027,61980,105282
186083,62009,105276
186129,62009,105294
186180,61985,105279
186231,61978,105259
186283,61973,105231
186333,61932,105214
186384,61892,105198
186442,61877,105147
186487,61814,105152
186538,61864,105213
186589,61820,105157
186644,61800,105154
186691,61804,105178
186742,61805,105165
186803,61809,105135
186844,61720,105092
186895,61714,105109
186946,61763,105118
187003,61749,105113
187048,61695,105074
187099,61711,105066
187150,61695,105086
187203,61722,105066
187252,61662,105046
187303,61660,105063
187363,61702,105048
187405,61639,105029
187456,61600,105015
187507,61633,105020
187563,61613,104988
187609,61592,104978
187661,61570,104991
187712,61564,104963
187763,61562,104964
187814,61561,104950
187865,61568,104960
187924,61529,104932
187967,61500,104931
188018,61526,104970
188069,61508,104917
188124,61468,104897
188171,61460,104903
188222,61481,104889
188283,61469,104887
188324,61449,104883
188375,61468,104895
188426,61472,104878
188483,61429,104881
188528,61421,104894
188579,61432,104873
188630,61422,104854
188684,61399,104841
188732,61394,104850
188783,61375,104805
188843,61374,104821
188885,61377,104833
188937,61369,104821
188988,61356,104821
189043,61365,104821
189090,61348,104796
189141,61318,104806
189192,61319,104812
189243,61328,104786
189294,61304,104755
189345,61298,104768
189404,61269,104755
189447,61282,104763
189498,61271,104759
189549,61281,104739
189604,61262,104764
189651,61258,104738
189702,61266,104728
189764,61254,104722
189804,61244,104719
189855,61235,104722
189906,61211,104676
189964,61178,104676
190008,61203,104728
190059,61210,104677
190110,61166,104660
190164,61175,104677
190213,61180,104675
190264,61159,104664
190323,61142,104652
190366,61157,104645
190417,61167,104657
190468,61106,104604
190523,61111,104623
190570,61115,104630
190621,61119,104628
190672,61101,104611
190723,61105,104609
190774,61126,104595
190825,61102,104599
190884,61110,104610
190927,61079,104592
190978,61107,104603
191029,61049,104595
191085,61046,104577
191131,61041,104573
191182,61022,104588
191244,61055,104584
191285,61037,104562
191335,61025,104585
191387,61028,104583
191444,61049,104585
191489,61054,104578
191540,61008,104542
191591,61015,104550
191644,61027,104540
191693,61017,104538
191744,61003,104524
191805,60966,104531
191846,61000,104533
191897,60996,104544
191948,60986,104514
192005,60959,104509
192050,60995,104549
192101,61006,104541
192152,60975,104475
192204,60918,104463
192254,60919,104482
192305,60945,104490
192365,60932,104477
192407,60901,104454
192458,60893,104459
192509,60924,104484
192565,60931,104499
192612,60939,104492
192663,60932,104470
192724,60919,104469
192765,60911,104459
192816,60906,104466
192867,60913,104454
192924,60917,104453
192969,60901,104448
193020,60873,104420
193071,60863,104458
193124,60892,104441
193173,60870,104439
193224,60852,104439
193285,60867,104458
193326,60892,104464
193377,60867,104446
193428,60875,104436
193484,60847,104419
193530,60827,104381
193581,60829,104417
193632,60872,104421
193684,60825,104406
193734,60822,104429
193785,60839,104392
193845,60799,104378
193888,60787,104400
193939,60825,104407
193990,60823,104386
194045,60788,104371
194092,60782,104368
194143,60793,104380
194204,60794,104372
194245,60793,104361
194296,60801,104375
194347,60764,104372
194404,60790,104375
194449,60795,104379
194500,60759,104339
194551,60768,104363
194604,60777,104333
194653,60777,104334
194704,60720,104321
194764,60756,104330
194806,60764,104333
194857,60759,104332
194908,60741,104314
194964,60747,104324
195010,60737,104298
195062,60752,104332
195113,60727,104336
195166,60718,104326
195215,60698,104347
195266,60687,104323
195325,60698,104304
195368,60667,104304
195419,60681,104319
195470,60681,104317
195525,60706,104327
195572,60684,104296
195623,60697,104307
195686,60676,104318
195725,60714,104305
195776,60666,104298
195827,60694,104310
195885,60698,104296
195929,60664,104263
195980,60619,104253
196031,60688,104297
196085,60668,104274
196133,60650,104281
196184,60654,104286
196246,60652,104286
196287,60665,104287
196338,60662,104295
196389,60640,104271
196446,60628,104270
196491,60631,104261
196542,60641,104296
196593,60636,104269
196646,60613,104254
196695,60605,104263
196746,60623,104250
196805,60624,104250
196848,60618,104248
196899,60623,104265
196950,60594,104246
197005,60598,104238
197052,60592,104241
197103,60602,104237
197165,60574,104240
197205,60581,104262
197256,60563,104220
197307,60567,104240
197365,60582,104244
197409,60581,104235
197460,60565,104237
197512,60566,104234
197565,60567,104232
197614,60562,104219
197665,60548,104190
197726,60518,104195
197767,60528,104201
197818,60531,104188
197869,60516,104183
197926,60520,104185
197971,60531,104169
198022,60513,104184
198073,60535,104190
198126,60529,104193
198175,60522,104192
198226,60493,104156
198285,60492,104163
198328,60506,104170
198379,60508,104163
198430,60424,104118
198486,60467,104156
198532,60511,104171
198583,60472,104133
198634,60458,104138
198686,60490,104164
198737,60484,104113
198788,60426,104110
198845,60456,104140
198890,60476,104137
198941,60466,104126
198992,60386,104092
199045,60443,104110
199094,60421,104078
199145,60389,104092
199206,60456,104126
199247,60398,104051
199298,60362,104051
199349,60392,104089
199406,60378,104076
199451,60313,104037
199502,60375,104074
199553,60345,104055
199607,60312,104038
199655,60332,104052
199706,60355,104076
199766,60382,104069
199808,60343,104049
199859,60354,104075
199910,60356,104059
199966,60375,104080
200013,60376,104069
200064,60350,104062
200115,60339,104036
200166,60348,104048
200217,60357,104039
200268,60337,104024
200327,60302,104024
200370,60315,104053
200421,60347,104063
200472,60302,104026
200527,60302,104026
200574,60317,104024
200625,60330,104031
200686,60327,104025
200727,60279,104003
200778,60275,103989
200829,60323,104007
200887,60269,103995
200931,60266,104006
200982,60294,104014
201033,60280,103984
201087,60255,103999
201135,60277,104005
201187,60264,103997
201246,60256,103990
201289,60264,104006
201340,60266,103995
201391,60226,103972
201446,60241,103977
201493,60270,103970
201544,60237,103962
201595,60228,103995
201646,60289,104013
201697,60252,103937
201748,60153,103899
201807,60155,103930
201850,60224,103965
201901,60258,103964
201952,60175,103924
202006,60197,103943
202054,60199,103928
202105,60247,103967
202167,60261,103967
202207,60236,103934
202258,60220,103951
202309,60260,103957
202367,60244,103943
202412,60247,103983
202463,60205,103919
202514,60223,103934
202567,60262,103946
202616,60258,103943
202667,60184,103892
202726,60183,103920
202769,60248,103927
202820,60229,103919
202871,60180,103945
202928,60203,103926
202973,60224,103930
203024,60169,103911
203075,60161,103913
203128,60164,103917
203177,60205,103899
203228,60140,103893
203288,60140,103905
203330,60164,103905
203381,60189,103904
203432,60147,103880
203488,60141,103893
203534,60137,103882
203585,60138,103885
203647,60151,103855
203688,60128,103864
203739,60113,103869
203790,60126,103855
203847,60136,103872
203892,60123,103872
203943,60112,103836
203994,60115,103857
204047,60123,103851
204096,60117,103866
204147,60069,103839
204208,60071,103844
204249,60086,103821
204300,60080,103838
204351,60079,103833
204408,60079,103819
204453,60070,103825
204504,60075,103823
204555,60087,103799
204607,60055,103806
204657,60062,103838
204708,60050,103806
204768,60044,103809
204810,60037,103806
204861,60039,103792
204913,60016,103793
204968,60014,103794
205015,60018,103791
205066,60011,103778
205127,60007,103781
205168,60010,103791
205219,60020,103792
205270,60033,103792
205327,60010,103761
205372,59973,103755
205423,59967,103732
205474,60013,103785
205527,60015,103761
205576,59975,103734
205627,59945,103737
205688,59994,103757
205729,59993,103759
205780,59987,103747
205831,59971,103742
205887,59964,103759
205933,59966,103723
205984,59992,103748
206035,59972,103742
206087,59961,103741
206138,59967,103780
206189,59962,103734
206248,59971,103727
206291,59977,103740
206342,59955,103735
206393,59971,103736
206448,59984,103706
206495,59965,103723
206546,59952,103739
206609,59922,103718
206648,59967,103731
206699,59937,103739
206750,59905,103721
206809,59903,103719
206852,59941,103712
206903,59900,103695
206954,59916,103724
207008,59949,103730
207056,59947,103718
207107,59910,103722
207169,59914,103729
207209,59945,103716
207260,59926,103711
207311,59920,103718
207369,59903,103718
207414,59885,103684
207465,59905,103705
207516,59916,103703
207569,59898,103692
207618,59877,103705
207669,59882,103695
207728,59906,103697
207771,59892,103701
207822,59901,103708
207873,59905,103696
207928,59893,103705
207975,59884,103694
208026,59889,103675
208089,59828,103654
208128,59830,103666
208179,59812,103652
208230,59817,103648
208288,59815,103658
208332,59825,103663
208383,59823,103651
208434,59811,103641
208488,59808,103634
208536,59807,103642
208588,59807,103648
208649,59817,103638
208690,59814,103620
208741,59827,103665
208792,59819,103637
208849,59801,103627
208894,59774,103611
208945,59787,103658
208996,59772,103611
209049,59766,103628
209098,59795,103640
209149,59777,103620
209208,59759,103603
209251,59741,103602
209302,59757,103614
209353,59731,103595
209409,59710,103580
209455,59712,103584
209506,59772,103595
209568,59730,103580
209609,59710,103611
209659,59712,103564
209710,59710,103574
209768,59721,103589
209813,59725,103577
209864,59722,103594
209915,59702,103565
209968,59699,103558
210017,59696,103560
210068,59664,103545
210129,59692,103558
210170,59705,103559
210221,59689,103558
210272,59688,103549
210329,59679,103549
210374,59655,103516
210425,59683,103541
210476,59694,103552
210529,59703,103535
210578,59677,103553
210629,59697,103534
210689,59700,103525
210731,59674,103522
210782,59646,103536
210833,59626,103524
210889,59684,103539
210935,59681,103548
210986,59639,103538
211038,59653,103533
211089,59668,103538
211140,59672,103511
211191,59627,103524
211250,59615,103523
211293,59620,103523
211344,59651,103536
211395,59604,103509
211450,59609,103512
211497,59615,103527
211548,59614,103512
211609,59626,103491
211650,59600,103511
211701,59629,103508
211752,59633,103505
211809,59609,103503
211854,59583,103505
211905,59609,103501
211956,59580,103477
212010,59567,103483
212058,59569,103483
212109,59580,103472
212169,59569,103477
212211,59560,103478
212263,59557,103485
212314,59559,103472
212369,59572,103479
212416,59582,103480
212467,59567,103474
212518,59558,103473
212569,59569,103472
212620,59574,103468
212671,59596,103490
212730,59592,103463
212773,59596,103492
212824,59584,103501
212875,59576,103478
212930,59579,103483
212977,59589,103476
213028,59573,103485
213090,59573,103475
213130,59565,103453
213181,59571,103457
213232,59584,103474
213290,59551,103477
213334,59562,103513
213385,59575,103476
213436,59564,103462
213490,59557,103470
213539,59541,103461
213590,59563,103467
213649,59560,103445
213692,59553,103442
213743,59534,103446
213794,59540,103460
213849,59536,103456
213896,59533,103435
213947,59541,103441
213998,59527,103443
214049,59537,103442
214100,59552,103441
214151,59548,103436
214210,59537,103433
214253,59520,103424
214304,59540,103424
214355,59522,103417
214409,59518,103420
214457,59522,103414
214508,59533,103411
214570,59532,103402
214610,59528,103395
214661,59524,103422
214713,59511,103398
214770,59526,103391
214815,59537,103434
214866,59496,103375
214917,59494,103398
214970,59534,103393
215019,59526,103388
215070,59474,103396
215131,59453,103397
215172,59516,103372
215223,59470,103381
215274,59478,103385
215331,59479,103380
215376,59513,103370
215427,59455,103364
215478,59475,103352
215530,59468,103354
215580,59488,103341
215631,59476,103334
215691,59447,103345
215733,59453,103350
215784,59483,103342
215835,59483,103342
215891,59455,103340
215938,59453,103342
215989,59470,103332
216050,59466,103332
216091,59449,103325
216142,59454,103328
216193,59469,103318
216250,59466,103308
216295,59463,103317
216346,59457,103304
216397,59475,103304
216450,59461,103290
216499,59457,103305
216550,59460,103294
216611,59458,103284
216652,59462,103284
216703,59448,103296
216754,59443,103271
216810,59443,103277
216856,59441,103268
216907,59441,103266
216958,59477,103283
217010,59454,103274
217060,59441,103273
217111,59434,103274
217171,59439,103262
217214,59436,103271
217265,59445,103258
217316,59431,103238
217371,59418,103240
217418,59420,103245
217469,59435,103232
217530,59432,103222
217571,59423,103209
217622,59438,103226
217673,59423,103223
217730,59435,103213
217775,59428,103249
217826,59444,103236
217877,59417,103203
217930,59403,103182
217979,59415,103200
218030,59388,103189
218090,59426,103199
218132,59426,103191
218183,59433,103189
218234,59394,103160
218290,59388,103183
218336,59402,103157
218388,59426,103186
218439,59397,103150
218490,59391,103163
218541,59390,103200
218592,59372,103137
218651,59393,103150
218694,59358,103141
218745,59349,103156
218796,59384,103159
218851,59399,103162
218898,59345,103135
218949,59383,103156
219012,59362,103164
219051,59405,103156
219102,59372,103155
219153,59366,103149
219211,59387,103142
219255,59383,103134
219306,59349,103110
219357,59366,103121
219411,59378,103122
219459,59368,103109
219510,59332,103118
219572,59350,103127
219613,59361,103115
219664,59354,103108
219715,59334,103105
219772,59325,103109
219817,59331,103102
219868,59362,103142
219919,59341,103111
219972,59327,103102
220021,59328,103092
220072,59316,103076
220131,59336,103082
220174,59324,103079
220225,59328,103090
220276,59328,103076
220331,59327,103095
220378,59337,103085
220429,59321,103063
220491,59268,103062
220531,59278,103092
220582,59289,103065
220633,59284,103067
220691,59280,103067
220735,59288,103056
220786,59281,103075
220838,59276,103071
220891,59274,103056
220940,59274,103050
220991,59276,103040
221052,59265,103046
221093,59262,103045
221144,59276,103050
221195,59279,103027
221252,59256,103029
221297,59260,103014
221348,59279,103031
221399,59234,103005
221452,59261,103030
221501,59262,103024
221552,59224,103011
221611,59239,103023
221654,59242,103026
221705,59242,103026
221756,59215,103011
221812,59251,103004
221858,59261,103034
221909,59237,103014
221960,59236,102993
222012,59243,102996
222062,59232,102970
222114,59201,102973
222173,59218,102994
222216,59199,102990
222267,59214,103020
222318,59185,103009
222373,59188,103003
222420,59183,102996
222471,59186,103007
222532,59225,102995
222573,59169,102983
222624,59204,102978
222675,59202,102977
222732,59185,102980
222777,59166,102986
222828,59185,102975
222879,59183,102979
222933,59173,102985
222981,59158,102970
223032,59171,102974
223092,59186,102973
223134,59153,102984
223185,59144,102970
223236,59146,102967
223292,59156,102973
223339,59151,102966
223390,59136,102966
223441,59123,102952
223492,59131,102955
223543,59143,102951
223594,59131,102951
223653,59124,102931
223696,59115,102941
223747,59123,102949
223798,59111,102933
223853,59117,102945
223900,59129,102930
223951,59121,102928
224012,59115,102934
224053,59086,102908
224104,59099,102920
224155,59120,102928
224213,59104,102947
224257,59095,102967
224308,59100,102929
224359,59090,102941
224413,59094,102937
224461,59088,102936
224512,59096,102934
224572,59083,102921
224615,59077,102912
224666,59074,102926
224717,59087,102931
224772,59083,102940
224819,59077,102911
224870,59072,102919
224921,59072,102912
224972,59072,102912
225023,59066,102896
225074,59080,102893
225133,59052,102893
225176,59051,102884
225227,59053,102895
225278,59061,102899
225333,59066,102909
225380,59042,102877
225431,59059,102888
225493,59058,102892
225533,59039,102877
225584,59041,102900
225635,59048,102878
225693,59039,102848
225737,59043,102892
225789,59027,102856
225840,59027,102856
225893,59050,102852
225942,59048,102880
225993,59025,102861
226052,59025,102855
226095,59041,102842
226146,59045,102872
226197,59020,102885
226254,59017,102877
226299,59039,102871
226350,58993,102869
226401,59011,102871
226454,58993,102873
226503,59030,102862
226554,59005,102867
226614,58983,102858
226656,58990,102866
226707,59020,102862
226758,59001,102858
226814,58991,102854
226860,58978,102838
226911,58991,102849
226973,58996,102834
227014,58972,102825
227065,58977,102851
227116,58983,102830
227173,58993,102846
227218,58989,102857
227269,58971,102825
227320,58976,102833
227373,58977,102834
227422,58978,102837
227473,58958,102818
227534,58938,102822
227575,58974,102818
227626,58954,102827
227677,58956,102822
227734,58954,102820
227779,58961,102822
227830,58951,102809
227881,58965,102818
227933,58956,102829
227983,58956,102823
228034,58947,102819
228094,58930,102808
228136,58934,102808
228187,58937,102807
228239,58926,102801
228294,58933,102812
228341,58928,102816
228392,58914,102804
228453,58927,102808
228494,58915,102796
228545,58912,102804
228596,58913,102806
228653,58911,102806
228698,58918,102799
228749,58905,102774
228800,58898,102797
228853,58910,102782
228902,58894,102788
228953,58890,102796
229014,58882,102794
229055,58895,102782
229106,58896,102788
229157,58908,102790
229213,58897,102793
229259,58888,102758
229310,58894,102780
229361,58902,102775
229413,58881,102780
229464,58886,102792
229515,58893,102784
229574,58897,102765
229617,58881,102777
229668,58859,102765
229719,58866,102765
229774,58860,102761
229821,58881,102767
229872,58866,102767
229933,58841,102761
229974,58874,102744
230025,58862,102768
230076,58841,102749
230133,58861,102731
230178,58852,102749
230229,58840,102748
230280,58845,102740
230334,58861,102727
230382,58849,102751
230433,58813,102747
230495,58819,102757
230535,58841,102747
230586,58853,102747
230637,58811,102756
230695,58810,102745
230740,58794,102725
230791,58827,102734
230842,58802,102747
230895,58797,102740
230944,58789,102753
230995,58792,102740
231054,58821,102737
231097,58791,102736
231148,58789,102735
231199,58787,102730
231254,58789,102732
231301,58793,102728
231352,58797,102721
231415,58759,102718
231454,58777,102743
231505,58755,102718
231556,58768,102714
231614,58781,102721
231658,58778,102727
231709,58756,102725
231760,58760,102714
231814,58764,102710
231862,58762,102718
231914,58756,102711
231975,58749,102697
232016,58743,102705
232067,58743,102709
232118,58723,102701
232175,58727,102703
232220,58725,102697
232271,58738,102712
232322,58727,102705
232375,58712,102710
232424,58729,102708
232475,58724,102712
232534,58730,102703
232577,58720,102696
232628,58726,102705
232679,58705,102687
232735,58693,102687
232781,58704,102698
232832,58707,102697
232883,58716,102695
232935,58705,102713
232985,58708,102674
233036,58689,102695
233094,58700,102697
233139,58695,102687
233190,58698,102717
233241,58681,102691
233294,58681,102676
233343,58679,102687
233394,58674,102663
233455,58682,102654
233496,58662,102671
233547,58658,102677
233598,58675,102668
233655,58676,102664
233700,58651,102658
233751,58687,102691
233802,58641,102675
233855,58682,102680
233904,58632,102683
233955,58633,102686
234015,58670,102686
234057,58663,102662
234108,58618,102670
234159,58625,102676
234215,58660,102680
234261,58647,102667
234312,58618,102672
234364,58622,102671
234415,58642,102679
234466,58640,102654
234517,58622,102656
234576,58597,102663
234619,58604,102660
234670,58623,102670
234721,58602,102669
234776,58593,102668
234823,58607,102653
234874,58613,102665
234935,58613,102661
234976,58592,102637
235027,58614,102656
235078,58625,102665
235135,58601,102667
235180,58593,102684
235231,58598,102651
235282,58587,102646
235336,58568,102645
235384,58572,102644
235435,58593,102647
235495,58576,102650
235537,58572,102648
235589,58575,102659
235640,58560,102646
235695,58570,102657
235742,58571,102651
235793,58561,102649
235844,58562,102650
235895,58561,102648
235946,58546,102628
235997,58550,102635
236056,58544,102644
236099,58549,102636
236150,58539,102627
236201,58559,102635
236256,58543,102651
236303,58543,102630
236354,58550,102641
236416,58549,102636
236456,58550,102629
236507,58541,102640
236558,58543,102626
236616,58531,102617
236660,58530,102653
236711,58526,102599
236762,58519,102614
236816,58540,102618
236865,58547,102627
236916,58504,102615
236975,58507,102615
237018,58533,102592
237069,58534,102632
237120,58513,102609
237175,58524,102618
237222,58503,102609
237273,58519,102612
237324,58494,102609
237377,58474,102595
237426,58514,102600
237477,58478,102616
237536,58503,102616
237579,58452,102606
237630,58491,102609
237681,58467,102602
237737,58453,102614
237783,58458,102606
237834,58462,102607
237896,58491,102601
237937,58460,102591
237987,58446,102593
238038,58454,102598
238096,58472,102585
238141,58457,102585
238192,58427,102569
238243,58455,102591
238296,58457,102579
238345,58455,102581
238396,58427,102596
238457,58415,102584
238498,58448,102587
238549,58433,102601
238600,58451,102583
238657,58424,102577
238702,58427,102560
238753,58416,102569
238804,58454,102572
238857,58412,102556
238906,58418,102600
238957,58427,102558
239017,58420,102561
239059,58407,102563
239110,58408,102577
239161,58418,102576
239217,58406,102571
239263,58408,102570
239315,58408,102571
239376,58400,102563
239417,58394,102552
239468,58387,102564
239519,58386,102566
239576,58387,102568
239621,58391,102558
239672,58380,102550
239723,58393,102559
239776,58387,102558
239825,58385,102557
239876,58372,102543
239937,58386,102559
239978,58385,102552
240029,58384,102544
240080,58371,102552
240136,58369,102541
240182,58365,102508
240233,58359,102542
240284,58358,102531
240336,58364,102543
240386,58359,102556
240437,58348,102531
240497,58376,102535
240540,58372,102540
240591,58345,102532
240642,58340,102524
240697,58361,102515
240744,58372,102506
240795,58352,102506
240856,58337,102511
240897,58361,102525
240948,58350,102515
240999,58306,102518
241058,58308,102505
241101,58351,102514
241152,58302,102506
241203,58312,102520
241258,58301,102507
241305,58322,102507
241356,58287,102520
241418,58297,102511
241458,58327,102495
241509,58319,102506
241560,58284,102491
241618,58281,102493
241662,58273,102472
241713,58296,102482
241765,58289,102486
241818,58273,102489
241867,58266,102486
241918,58280,102475
241977,58270,102473
242020,58257,102473
242071,58253,102484
242122,58249,102482
242177,58259,102475
242224,58245,102472
242275,58252,102467
242326,58255,102444
242377,58246,102469
242428,58237,102439
242479,58248,102459
242538,58231,102456
242581,58233,102451
242632,58226,102479
242683,58220,102458
242737,58230,102448
242785,58231,102448
242836,58218,102451
242898,58219,102448
242938,58203,102440
242990,58212,102427
243041,58229,102433
243098,58198,102445
243143,58201,102440
243194,58210,102442
243245,58204,102417
243298,58191,102437
243347,58205,102437
243398,58206,102438
243457,58208,102429
243500,58200,102435
243551,58178,102417
243602,58174,102419
243657,58180,102398
243704,58185,102407
243755,58179,102408
243806,58185,102416
243858,58206,102411
243908,58201,102394
243959,58164,102400
244017,58171,102398
244061,58164,102390
244112,58183,102419
244163,58149,102372
244217,58155,102387
244266,58151,102398
244317,58154,102382
244378,58176,102391
244419,58130,102366
244470,58136,102382
244521,58156,102387
244578,58161,102411
244623,58168,102415
244674,58114,102381
244725,58127,102403
244778,58165,102394
244827,58116,102390
244878,58120,102372
244939,58102,102377
244980,58129,102363
245031,58106,102367
245082,58101,102371
245138,58116,102374
245184,58114,102355
245235,58097,102364
245286,58096,102357
245338,58103,102365
245388,58110,102365
245440,58100,102358
245499,58079,102343
245542,58080,102358
245593,58091,102351
245644,58079,102330
245699,58060,102347
245746,58059,102334
245797,58078,102338
245858,58065,102340
245899,58066,102319
245950,58075,102336
246001,58063,102322
246058,58060,102334
246103,58066,102356
246154,58065,102308
246205,58059,102337
246259,58054,102335
246307,58057,102336
246358,58036,102329
246418,58032,102319
246460,58030,102304
246511,58027,102323
246562,58015,102321
246618,58039,102328
246665,58025,102315
246716,58021,102319
246767,58042,102329
246818,58028,102328
246869,58029,102313
246920,58038,102310
246979,58024,102312
247022,58018,102335
247073,58009,102312
247124,58021,102307
247179,58015,102311
247226,58013,102305
247277,57996,102317
247338,58016,102316
247379,58018,102296
247430,57995,102309
247481,58007,102306
247539,58023,102295
247583,58015,102319
247634,58003,102297
247685,58002,102296
247739,58015,102323
247787,58013,102319
247838,57954,102271
247898,57982,102276
247941,58011,102277
247992,58014,102296
248043,57985,102297
248100,57978,102289
248145,57974,102281
248196,58003,102293
248247,57984,102307
248300,57948,102301
248349,57951,102314
248400,57951,102305
248459,57982,102297
248502,57951,102297
248553,57971,102291
248604,57950,102283
248659,57962,102287
248706,57930,102281
248757,57949,102287
248819,57959,102281
248860,57927,102273
248910,57929,102287
248961,57941,102284
249019,57939,102273
249063,57937,102284
249115,57924,102273
249166,57939,102281
249219,57936,102275
249268,57915,102267
249319,57896,102275
249380,57919,102267
249421,57912,102271
249472,57910,102273
249523,57909,102260
249580,57915,102275
249625,57916,102257
249676,57911,102271
249727,57898,102273
249780,57904,102274
249829,57907,102283
249880,57884,102263
249940,57887,102264
249982,57874,102267
250033,57887,102259
250084,57878,102254
250140,57863,102258
250186,57882,102254
250237,57913,102255
250299,57886,102241
250340,57890,102282
250391,57879,102260
250442,57884,102244
250499,57884,102268
250544,57875,102250
250595,57882,102261
250646,57864,102248
250699,57864,102252
250748,57870,102255
250799,57858,102244
250860,57870,102234
250901,57868,102244
250952,57885,102245
251003,57866,102233
251060,57874,102231
251105,57862,102219
251156,57880,102234
251207,57849,102254
251261,57831,102227
251309,57821,102230
251360,57832,102241
251420,57856,102230
251462,57817,102225
251513,57828,102228
251565,57825,102234
251620,57854,102228
251667,57847,102236
251718,57827,102236
251769,57845,102233
251820,57856,102247
251871,57855,102220
251922,57842,102217
251981,57823,102212
252024,57816,102214
252075,57818,102233
252126,57813,102210
252181,57809,102206
252228,57819,102211
252279,57809,102206
252340,57824,102209
252381,57806,102209
252432,57812,102202
252483,57825,102198
252541,57803,102186
252585,57804,102190
252636,57801,102194
252687,57797,102189
252741,57793,102193
252790,57788,102191
252841,57789,102199
252900,57784,102191
252943,57781,102192
252994,57782,102193
253045,57780,102201
253100,57783,102198
253147,57783,102175
253198,57767,102173
253249,57763,102178
253300,57772,102173
253351,57766,102170
253402,57783,102173
253461,57770,102161
253504,57770,102168
253555,57778,102175
253606,57768,102179
253660,57757,102184
253708,57765,102162
253759,57764,102156
253821,57764,102151
253861,57752,102135
253912,57751,102161
253963,57754,102148
254021,57767,102132
254066,57773,102177
254117,57747,102133
254168,57747,102134
254221,57765,102148
254270,57764,102153
254321,57724,102170
254382,57709,102159
254423,57756,102142
254474,57757,102149
254525,57714,102141
254582,57710,102146
254627,57738,102138
254678,57701,102134
254729,57737,102148
254782,57702,102148
254831,57717,102126
254882,57717,102131
254942,57700,102136
254984,57706,102131
255035,57717,102138
255086,57698,102136
255142,57690,102138
255188,57680,102126
255239,57692,102130
255301,57699,102132
255342,57690,102120
255393,57682,102123
255444,57694,102130
255501,57690,102114
255546,57686,102114
255597,57681,102112
255648,57696,102106
255701,57680,102110
255750,57685,102126
255801,57652,102114
255862,57664,102118
255903,57672,102124
255954,57653,102114
256005,57666,102111
256062,57656,102120
256107,57665,102089
256158,57651,102100
256209,57681,102116
256261,57657,102116
256311,57661,102136
256362,57652,102093
256422,57644,102102
256464,57649,102112
256516,57647,102099
256567,57647,102090
256622,57646,102092
256669,57655,102087
256720,57650,102098
256781,57628,102092
256822,57656,102102
256873,57658,102099
256924,57618,102079
256981,57643,102081
257026,57652,102095
257077,57618,102084
257128,57618,102092
257183,57609,102084
257230,57637,102085
257281,57606,102098
257343,57578,102088
257383,57591,102079
257434,57633,102083
257485,57592,102093
257543,57586,102082
257587,57581,102084
257638,57623,102081
257689,57595,102071
257743,57581,102074
257792,57577,102076
257843,57588,102076
257902,57608,102069
257945,57577,102076
257996,57573,102084
258047,57566,102077
258102,57574,102088
258149,57593,102084
258200,57585,102079
258251,57595,102075
258302,57570,102098
258353,57557,102038
258404,57570,102072
258463,57573,102059
258506,57571,102072
258557,57559,102090
258608,57564,102054
258662,57576,102057
258710,57562,102073
258761,57536,102072
258823,57552,102072
258863,57555,102070
258914,57552,102064
258966,57564,102059
259023,57538,102052
259068,57538,102057
259119,57545,102056
259170,57551,102052
259223,57543,102059
259272,57531,102059
259323,57536,102057
259382,57548,102049
259425,57545,102065
259476,57532,102050
259527,57520,102042
259582,57531,102032
259629,57534,102046
259680,57526,102051
259731,57525,102039
259783,57542,102042
259833,57534,102043
259884,57511,102029
259942,57523,102023
259986,57513,102034
260037,57535,102050
260088,57495,102035
260144,57489,102040
260191,57486,102038
260242,57499,102045
260303,57517,102051
260344,57479,102018
260395,57485,102030
260446,57507,102042
260503,57510,102055
260548,57519,102062
260599,57476,102024
260650,57496,102040
260703,57492,102034
260752,57469,102034
260803,57485,102028
260864,57461,102025
260905,57490,102020
260956,57465,102031
261007,57473,102034
261063,57484,102039
261109,57473,102042
261160,57461,102030
261211,57474,102028
261263,57467,102021
261313,57458,102015
261364,57463,102025
261424,57448,102019
261467,57454,102023
261518,57453,102031
261569,57460,102022
261624,57455,102027
261671,57453,102015
261722,57447,102028
261783,57448,102026
261824,57447,102018
261875,57441,102025
261926,57434,102029
261983,57437,102026
262028,57436,102031
262079,57430,102009
262130,57444,102036
262183,57441,102023
262232,57430,102023
262283,57412,102032
262343,57429,102017
262385,57431,102014
262436,57423,102019
262487,57433,102016
262543,57439,102020
262589,57420,101985
262641,57425,102007
262692,57439,102025
262743,57417,102022
262794,57420,102044
262845,57414,102006
262904,57425,102006
262947,57430,102025
262998,57407,102015
263049,57407,102004
263104,57420,102001
263151,57404,102011
263202,57396,102020
263265,57383,102004
263304,57418,101989
263355,57372,102016
263406,57391,102021
263464,57416,102007
263508,57399,102005
263559,57365,101990
263610,57372,101998
263664,57386,101996
263712,57386,101984
263763,57360,101990
263825,57360,102003
263866,57383,101988
263917,57370,101993
263968,57358,101976
264025,57330,101978
264070,57337,101975
264121,57352,101987
264172,57359,101986
264225,57332,101977
264274,57339,101987
264325,57329,101986
264384,57337,101978
264427,57336,101970
264478,57334,101979
264529,57326,101960
264584,57327,101973
264631,57327,101967
264682,57335,101973
264744,57319,101984
264784,57327,101997
264835,57299,101949
264886,57327,101967
264944,57330,101976
264988,57319,101974
265039,57308,101995
265091,57323,101990
265144,57325,101984
265193,57319,101981
265244,57336,101988
265305,57340,101983
265346,57337,101984
265397,57328,101985
265448,57337,101981
265505,57331,101979
265550,57337,101970
265601,57344,101986
265652,57320,101966
265705,57337,101963
265754,57316,101979
265805,57303,101953
265864,57317,101955
265907,57329,101973
265958,57293,101973
266009,57277,101971
266065,57319,101982
266111,57316,101963
266162,57272,101973
266213,57291,101972
266265,57304,101963
266316,57302,101946
266367,57285,101962
266426,57266,101952
266469,57271,101958
266520,57286,101967
266571,57277,101955
266626,57268,101976
266673,57260,101955
266724,57289,101959
266785,57284,101967
266826,57261,101942
266877,57274,101951
266928,57300,101976
266985,57277,101966
267030,57262,101978
267081,57268,101947
267132,57261,101947
267186,57262,101953
267234,57260,101956
267285,57255,101950
267345,57244,101953
267387,57235,101947
267438,57249,101956
267489,57244,101950
267545,57243,101955
267592,57246,101953
267643,57234,101947
267694,57246,101954
267745,57234,101942
267796,57239,101922
267847,57240,101929
267906,57230,101939
267949,57228,101953
268000,57237,101940
268051,57236,101934
268106,57243,101942
268153,57231,101935
268204,57212,101939
268265,57222,101929
268306,57225,101911
268357,57228,101935
268408,57227,101925
268466,57229,101922
268510,57240,101936
268561,57215,101922
268612,57215,101911
268666,57234,101937
268714,57235,101935
268766,57186,101938
268827,57188,101941
268868,57229,101919
268919,57232,101925
268970,57174,101917
269027,57186,101924
269072,57186,101896
269123,57213,101908
269174,57215,101915
269227,57174,101918
269276,57197,101932
269327,57189,101922
269386,57204,101913
269429,57181,101913
269480,57196,101915
269531,57191,101909
269587,57156,101911
269633,57158,101899
269684,57186,101903
269746,57170,101909
269787,57155,101904
269837,57163,101921
269888,57168,101904
269946,57170,101903
269991,57173,101912
270042,57163,101889
270093,57164,101902
270146,57163,101896
270195,57161,101897
270246,57138,101891
270307,57151,101911
270348,57158,101899
270399,57153,101889
270450,57140,101900
270507,57131,101903
270552,57145,101878
270603,57139,101903
270654,57149,101892
270707,57135,101901
270756,57144,101907
270807,57146,101880
270867,57144,101879
270909,57137,101893
270960,57140,101891
271011,57115,101886
271067,57126,101879
271113,57150,101887
271164,57142,101888
271226,57132,101890
271267,57146,101916
271318,57148,101883
271369,57111,101868
271426,57134,101874
271471,57120,101867
271522,57137,101898
271573,57108,101849
271626,57115,101877
271675,57104,101884
271726,57088,101880
271787,57123,101888
271828,57082,101881
271879,57128,101879
271930,57097,101881
271987,57105,101876
272032,57073,101862
272083,57098,101869
272134,57087,101862
272188,57087,101872
272236,57079,101867
272287,57078,101854
272347,57084,101863
272389,57073,101863
272440,57069,101868
272492,57067,101870
272547,57070,101867
272594,57066,101860
272645,57064,101865
272696,57068,101857
272747,57074,101866
272798,57075,101852
272849,57073,101859
272908,57063,101843
272951,57074,101870
273002,57079,101880
273053,57072,101864
273108,57077,101876
273155,57067,101868
273206,57079,101872
273267,57064,101862
273308,57052,101849
273359,57071,101858
273410,57096,101881
273468,57050,101874
273512,57045,101893
273563,57063,101870
273614,57076,101874
273668,57063,101873
273717,57060,101875
273768,57069,101875
273827,57061,101860
273870,57050,101853
273921,57055,101870
273972,57054,101863
274027,57050,101877
274074,57050,101861
274125,57051,101861
274176,57044,101867
274227,57051,101857
274278,57065,101848
274329,57055,101864
274388,57062,101860
274431,57048,101851
274482,57062,101866
274533,57048,101838
274589,57029,101864
274635,57032,101850
274686,57038,101873
274748,57060,101881
274789,57023,101849
274839,57018,101867
274890,57046,101877
274948,57045,101874
274993,57053,101875
275044,57021,101849
275095,57033,101867
275148,57042,101853
275197,57049,101863
275248,57015,101842
275309,57017,101860
275350,57036,101847
275401,57015,101858
275452,57040,101848
275509,57030,101858
275554,57031,101844
275605,57020,101846
275656,57050,101856
275709,57007,101852
275758,57032,101874
275809,57018,101842
275869,57015,101851
275911,57025,101843
275962,57025,101859
276013,57024,101847
276069,57010,101856
276115,57023,101863
276167,57030,101857
276228,57014,101855
276269,57016,101845
276320,57006,101849
276371,57017,101852
276428,57022,101858
276473,57021,101847
276524,57006,101827
276575,57024,101854
276628,57030,101851
276677,57012,101849
276728,57030,101843
276789,57013,101837
276830,57017,101836
276881,57023,101829
276932,56997,101829
276988,56995,101843
277034,57013,101811
277085,57035,101831
277136,56991,101817
277188,57002,101824
277238,57009,101837
277289,57003,101810
277349,57012,101801
277392,57021,101824
277443,56995,101822
277494,56982,101807
277549,57005,101821
277596,57021,101810
277647,57008,101830
277710,56980,101823
277749,57014,101834
277800,57016,101813
277851,56975,101824
277910,56984,101825
277953,57020,101827
278004,56992,101836
278055,57012,101835
278110,57006,101831
278157,57016,101818
278208,56965,101800
278270,56969,101793
278310,56982,101815
278361,57007,101815
278412,56995,101813
278470,56986,101807
278514,56978,101789
278565,56984,101801
278617,56971,101799
278670,56965,101793
278719,56967,101794
278770,56965,101787
278829,56970,101801
278872,56976,101802
278923,56978,101800
278974,56957,101779
279029,56960,101783
279076,56967,101808
279127,56966,101789
279178,56960,101793
279229,56955,101805
279280,56957,101776
279331,56958,101780
279390,56949,101787
279433,56958,101778
279484,56939,101798
279535,56944,101791
279589,56955,101788
279637,56955,101779
279688,56966,101770
279750,56959,101786
279790,56953,101781
279842,56946,101769
279893,56964,101764
279950,56927,101756
279995,56933,101777
280046,56933,101766
280097,56936,101755
280150,56942,101755
280199,56951,101761
280250,56922,101746
280309,56934,101740
280352,56946,101745
280403,56933,101753
280454,56910,101723
280509,56911,101720
280556,56948,101740
280607,56907,101744
280658,56897,101740
280710,56926,101726
280760,56929,101731
280811,56891,101736
280871,56886,101722
280913,56884,101732
280964,56916,101731
281015,56890,101723
281071,56881,101739
281118,56881,101720
281169,56892,101724
281230,56897,101717
281271,56880,101710
281322,56884,101725
281373,56886,101715
281430,56873,101714
281475,56877,101740
281526,56879,101704
281577,56879,101717
281630,56875,101721
281679,56866,101716
281730,56875,101720
281791,56858,101705
281832,56866,101700
281883,56851,101715
281934,56884,101715
281990,56892,101714
282036,56885,101725
282087,56885,101711
282138,56894,101730
282190,56875,101724
282240,56869,101721
282292,56863,101725
282351,56858,101712
282394,56862,101725
282445,56873,101718
282496,56863,101706
282551,56865,101720
282598,56865,101710
282649,56869,101715
282710,56872,101704
282751,56866,101711
282802,56875,101719
282853,56874,101711
282910,56876,101711
282955,56869,101730
283006,56868,101706
283057,56874,101710
283111,56880,101703
283159,56869,101708
283210,56839,101707
283270,56875,101707
283312,56886,101722
283363,56881,101716
283414,56862,101687
283470,56866,101701
283517,56862,101687
283568,56886,101705
283619,56857,101714
283672,56837,101705
283721,56835,101727
283772,56830,101718
283831,56852,101711
283874,56827,101708
283925,56829,101717
283976,56841,101710
284031,56854,101713
284078,56825,101681
284129,56868,101695
284192,56830,101708
284231,56854,101720
284282,56833,101712
284333,56843,101701
284391,56842,101711
284435,56849,101714
284486,56828,101703
284537,56857,101727
284591,56852,101726
284639,56853,101732
284690,56854,101740
284752,56849,101736
284793,56856,101726
284844,56851,101737
284895,56836,101721
284952,56843,101719
284997,56848,101720
285048,56861,101731
285099,56832,101739
285152,56845,101744
285201,56846,101745
285252,56845,101746
285311,56849,101740
285354,56851,101749
285405,56859,101750
285456,56824,101755
285511,56842,101746
285558,56832,101752
285609,56850,101753
285660,56871,101744
285712,56835,101766
285762,56832,101712
285813,56856,101760
285871,56861,101769
285915,56846,101746
285967,56840,101775
286018,56844,101753
286071,56850,101747
286120,56836,101747
286171,56835,101740
286232,56837,101736
286273,56822,101736
286324,56816,101730
286375,56813,101729
286432,56837,101744
286477,56823,101717
286528,56841,101728
286579,56818,101733
286632,56825,101727
286681,56794,101725
286732,56816,101723
286791,56842,101707
286834,56840,101714
286885,56811,101732
286936,56805,101733
286992,56837,101739
287038,56837,101729
287089,56790,101727
287140,56797,101738
287192,56827,101733
287243,56820,101709
287294,56790,101714
287353,56771,101694
287396,56767,101698
287447,56804,101732
287498,56780,101707
287553,56779,101722
287600,56778,101708
287651,56790,101716
287712,56809,101708
287753,56777,101699
287804,56790,101693
287855,56811,101702
287912,56780,101703
287957,56761,101714
288008,56771,101703
288059,56780,101701
288113,56762,101713
288161,56768,101699
288212,56774,101692
288272,56776,101701
288314,56765,101698
288365,56771,101697
288416,56768,101685
288472,56773,101686
288519,56779,101688
288570,56764,101701
288621,56749,101677
288672,56771,101694
288723,56769,101688
288774,56763,101698
288833,56752,101682
288876,56749,101695
288927,56750,101694
288978,56760,101685
289033,56749,101703
289080,56757,101677
289131,56762,101691
289192,56753,101688
289233,56741,101667
289284,56746,101675
289335,56767,101678
289393,56744,101682
289437,56736,101715
289488,56743,101657
289539,56752,101674
289593,56750,101688
289641,56748,101691
289693,56746,101680
289752,56737,101678
289795,56732,101665
289846,56740,101683
289897,56724,101661
289952,56720,101662
289999,56715,101655
290050,56740,101669
290101,56727,101672
290152,56733,101667
290203,56741,101659
290254,56742,101660
290313,56744,101676
290356,56726,101672
290407,56750,101673
290458,56718,101657
290512,56718,101659
290560,56716,101655
290611,56692,101657
290673,56716,101669
290714,56693,101645
290764,56691,101676
290815,56705,101692
290873,56721,101685
290918,56729,101681
290969,56693,101656
291020,56714,101684
291073,56734,101682
291122,56726,101683
291173,56696,101679
291234,56682,101687
291275,56728,101665
291326,56711,101671
291377,56698,101657
291434,56702,101674
291479,56714,101668
291530,56690,101668
291581,56730,101680
291634,56692,101683
291683,56709,101692
291734,56706,101682
291794,56688,101682
291836,56690,101679
291887,56704,101684
291938,56699,101682
291994,56689,101680
292040,56684,101678
292091,56690,101668
292153,56698,101662
292194,56691,101645
292245,56690,101671
292296,56689,101669
292353,56671,101670
292398,56664,101667
292449,56654,101652
292500,56661,101662
292553,56668,101640
292602,56669,101659
292653,56669,101661
292714,56667,101664
292755,56673,101656
292806,56659,101643
292857,56674,101639
292914,56658,101646
292959,56673,101621
293010,56676,101636
293061,56711,101644
293113,56691,101639
293163,56702,101676
293214,56699,101627
293274,56698,101629
293316,56703,101661
293368,56708,101640
293419,56715,101641
293474,56708,101641
293521,56713,101628
293572,56721,101647
293633,56725,101659
293674,56742,101657
293725,56739,101653
293776,56714,101649
293833,56742,101640
293878,56757,101661
293929,56725,101645
293980,56721,101634
294033,56728,101648
294082,56750,101669
294133,56713,101668
294195,56705,101672
294235,56707,101658
294286,56753,101662
294337,56703,101676
294395,56718,101675
294439,56717,101658
294490,56753,101640
294541,56725,101662
294595,56717,101677
294644,56723,101679
294695,56744,101684
294754,56751,101674
294797,56734,101684
294848,56734,101696
294899,56736,101699
294954,56757,101703
295001,56754,101708
295052,56753,101705
295103,56762,101710
295154,56758,101730
295205,56751,101689
295256,56764,101712
295315,56756,101728
295358,56773,101726
295409,56788,101756
295460,56780,101730
295514,56798,101743
295562,56805,101746
295613,56790,101733
295675,56778,101724
295715,56761,101724
295766,56761,101733
295818,56765,101727
295875,56752,101728
295920,56734,101711
295971,56736,101718
296022,56730,101713
296075,56716,101717
296124,56720,101715
296175,56718,101724
296234,56724,101717
296277,56716,101709
296328,56724,101704
296379,56701,101705
296434,56703,101693
296481,56703,101714
296532,56700,101707
296583,56695,101689
296635,56682,101707
296685,56688,101688
296736,56694,101689
296794,56682,101690
296838,56670,101686
296889,56684,101710
296940,56665,101688
296994,56670,101693
297043,56670,101692
297094,56679,101680
297155,56687,101679
297196,56664,101681
297247,56671,101688
297298,56696,101695
297355,56676,101678
297400,56686,101708
297451,56667,101705
297502,56665,101685
297555,56683,101697
297604,56647,101698
297655,56624,101698
297716,56622,101703
297757,56674,101696
297808,56640,101699
297859,56629,101706
297915,56671,101691
297961,56661,101687
298012,56637,101702
298063,56649,101703
298115,56669,101705
298165,56672,101687
298216,56654,101685
298276,56635,101680
298319,56638,101692
298370,56651,101692
298421,56647,101685
298476,56634,101700
298523,56631,101683
298574,56649,101688
298635,56656,101689
298676,56632,101677
298727,56636,101684
298778,56656,101687
298835,56639,101692
298880,56622,101714
298931,56644,101678
298982,56637,101690
299035,56634,101692
299084,56618,101686
299135,56638,101683
299195,56635,101695
299237,56631,101690
299288,56641,101701
299339,56627,101681
299395,56631,101696
299441,56636,101703
299493,56640,101702
299544,56640,101700
299595,56637,101703
299646,56634,101680
299697,56617,101692
299756,56623,101699
299799,56622,101698
299850,56642,101696
299901,56625,101694
299956,56622,101698
300003,56634,101690
300054,56632,101705
300115,56633,101680
300156,56627,101681
300207,56640,101699
300258,56635,101692
300316,56639,101692
300360,56635,101701
300411,56636,101669
300462,56634,101672
300516,56643,101703
300564,56636,101684
300615,56614,101680
300675,56621,101679
300718,56640,101666
300769,56656,101687
300820,56632,101678
300875,56640,101675
300922,56633,101664
300973,56665,101662
301024,56638,101645
301075,56631,101661
301126,56635,101689
301177,56624,101658
301236,56640,101667
301279,56616,101669
301330,56663,101676
301381,56617,101672
301436,56653,101681
301483,56616,101668
301534,56626,101678
301596,56647,101664
301636,56653,101647
301687,56624,101651
301738,56644,101667
301796,56656,101680
301840,56657,101668
301891,56632,101663
301943,56643,101664
301996,56661,101650
302045,56659,101668
302096,56644,101662
302157,56641,101663
302198,56661,101673
302249,56656,101668
302300,56666,101658
302357,56651,101668
302402,56671,101651
302453,56656,101663
302504,56703,101667
302557,56666,101659
302606,56677,101687
302657,56683,101661
302716,56692,101657
302759,56671,101661
302810,56693,101661
302861,56690,101652
302917,56679,101651
302963,56698,101656
303014,56728,101643
303076,56706,101660
303117,56702,101653
303168,56706,101664
303219,56710,101656
303276,56715,101661
303321,56728,101657
303372,56718,101628
303423,56724,101658
303476,56728,101659
303525,56728,101640
303576,56733,101631
303637,56720,101646
303678,56736,101633
303729,56737,101633
303780,56741,101619
303837,56745,101635
303882,56750,101606
303933,56751,101626
303984,56764,101624
304036,56756,101616
304086,56757,101628
304137,56774,101608
304197,56785,101611
304239,56782,101616
304290,56780,101609
304341,56766,101602
304397,56799,101602
304444,56818,101607
304495,56819,101607
304556,56819,101621
304597,56846,101652
304648,56863,101629
304699,56833,101607
304756,56860,101632
304801,56848,101635
304852,56893,101661
304903,56862,101662
304958,56865,101656
305005,56916,101658
305056,56869,101657
305117,56901,101659
305158,56873,101649
305209,56913,101644
305260,56880,101637
305318,56867,101632
305362,56875,101614
305413,56912,101623
305464,56903,101622
305518,56880,101635
305566,56889,101629
305617,56910,101617
305677,56915,101617
305720,56899,101614
305771,56905,101631
305822,56916,101627
305877,56934,101620
305924,56923,101630
305975,56917,101624
306026,56944,101617
306077,56938,101644
306128,56933,101610
306179,56940,101624
306238,56936,101632
306281,56951,101622
306332,56945,101650
306383,56942,101615
306438,56947,101620
306485,56952,101613
306536,56945,101600
306598,56951,101592
306638,56957,101601
306689,56960,101597
306740,56975,101600
306798,56956,101599
306842,56963,101596
306894,56966,101604
306945,56960,101594
306998,56954,101602
307047,56953,101596
307098,56965,101600
307157,56963,101594
307200,56951,101593
307251,56958,101592
307302,56969,101592
307357,56971,101589
307404,56969,101580
307455,56974,101586
307506,56971,101586
307557,56984,101576
307608,56969,101554
307659,56976,101589
307717,56976,101579
307761,56969,101571
307812,56979,101587
307863,56963,101565
307917,56974,101582
307965,56981,101567
308016,56994,101560
308078,56990,101561
308119,56981,101536
308170,56971,101553
308221,57002,101549
308278,56992,101548
308323,57001,101585
308374,56974,101548
308425,56978,101546
308478,56989,101552
308527,57000,101551
308578,56968,101556
308639,56974,101546
308680,57004,101556
308731,56968,101563
308782,56968,101574
308839,56972,101572
308884,57022,101575
308935,56989,101587
308986,57005,101592
309038,57035,101600
309088,57040,101584
309139,57024,101593
309199,57011,101584
309241,57015,101601
309292,57036,101598
309344,57030,101592
309399,57009,101585
309446,57012,101589
309497,57020,101595
309558,57019,101588
309599,57002,101577
309650,57009,101594
309701,57021,101593
309758,57014,101591
309803,57012,101603
309854,57009,101569
309905,57013,101583
309958,57009,101581
310007,57008,101595
310058,57022,101583
310119,57004,101579
310160,57009,101576
310211,57005,101590
310262,56999,101597
310318,57017,101587
310364,57014,101577
310415,56991,101565
310466,57026,101595
310518,57006,101579
310569,56997,101588
310620,57007,101581
310679,56993,101582
310722,56998,101594
310773,57003,101576
310824,57004,101578
310879,57005,101594
310926,56999,101584
310977,56991,101582
311038,57007,101582
311079,57000,101564
311130,56989,101582
311181,56991,101574
311238,57003,101564
311283,57000,101589
311334,56991,101564
311385,56985,101571
311439,57006,101560
311487,57001,101583
311538,56964,101559
311598,56997,101566
311640,57008,101577
311691,57013,101572
311742,56977,101569
311800,56969,101570
311845,56968,101554
311896,57002,101574
311947,56978,101587
312000,56954,101582
312049,56963,101608
312100,56968,101605
312159,56995,101593
312202,56967,101601
312253,56972,101605
312304,56986,101601
312359,56988,101593
312406,56963,101572
312457,57005,101589
312520,56964,101585
312559,56969,101602
312610,56958,101591
312661,56965,101583
312719,56969,101591
312763,56971,101595
312814,56961,101588
312865,56971,101588
312919,56969,101600
312967,56964,101591
313019,56952,101583
313080,56963,101564
313121,56963,101560
313172,56962,101590
313223,56950,101583
313280,56954,101583
313325,56946,101569
313376,56951,101591
313427,56964,101591
313480,56947,101590
313529,56960,101587
313580,56957,101599
313639,56958,101590
313682,56940,101583
313733,56952,101587
313784,56939,101575
313840,56942,101587
313886,56946,101596
313937,56951,101587
313988,56961,101584
314040,56946,101606
314090,56946,101569
314141,56956,101594
314199,56951,101594
314244,56938,101584
314295,56955,101613
314346,56928,101571
314399,56924,101567
314448,56931,101581
314499,56935,101567
314560,56944,101559
314601,56923,101569
314652,56919,101570
314703,56933,101565
314760,56931,101583
314805,56898,101573
314856,56943,101576
314907,56893,101579
314960,56918,101562
315009,56877,101566
315060,56885,101576
315120,56916,101567
315162,56895,101560
315213,56869,101569
315264,56885,101562
315320,56902,101564
315366,56900,101562
315417,56859,101559
315469,56872,101563
315520,56881,101555
315571,56863,101533
315622,56867,101559
315681,56860,101539
315724,56853,101557
315775,56863,101558
315826,56857,101548
315881,56841,101554
315928,56844,101538
315979,56849,101551
316040,56848,101547
316081,56846,101519
316132,56846,101535
316183,56863,101527
316240,56843,101525
316285,56839,101558
316336,56849,101540
316387,56832,101535
316441,56823,101545
316489,56828,101542
316540,56825,101551
316600,56820,101558
316642,56824,101544
316694,56814,101548
316745,56828,101553
316800,56842,101564
316847,56832,101560
316898,56822,101548
316949,56835,101551
317000,56826,101544
317051,56826,101527
317102,56832,101538
317161,56818,101561
317204,56824,101542
317255,56833,101552
317306,56822,101554
317361,56825,101543
317408,56817,101535
317459,56814,101546
317521,56835,101550
317561,56830,101522
317612,56811,101548
317663,56822,101537
317721,56830,101536
317765,56836,101563
317816,56806,101539
317867,56802,101534
317921,56828,101559
317970,56824,101552
318021,56764,101560
318082,56771,101554
318123,56812,101533
318174,56814,101543
318225,56776,101545
318282,56772,101542
318327,56764,101544
318378,56794,101532
318429,56805,101542
318482,56763,101535
318531,56786,101553
318582,56767,101533
318641,56774,101523
318684,56746,101528
318735,56768,101522
318786,56755,101517
318842,56742,101528
318888,56745,101532
318939,56746,101521
319001,56744,101520
319042,56730,101510
319092,56739,101520
319144,56738,101525
319201,56750,101524
319246,56740,101519
319297,56725,101518
319348,56731,101519
319401,56730,101506
319450,56734,101521
319501,56715,101514
319562,56715,101506
319603,56727,101531
319654,56719,101510
319705,56714,101520
319762,56713,101525
319807,56732,101500
319858,56713,101521
319909,56736,101522
319962,56720,101537
320011,56732,101549
320062,56733,101534
320122,56734,101552
320164,56724,101553
320215,56741,101554
320266,56757,101542
320322,56737,101554
320369,56751,101551
320420,56785,101571
320481,56760,101574
320522,56767,101589
320573,56761,101581
320624,56756,101581
320681,56770,101582
320726,56757,101564
320777,56775,101575
320828,56756,101586
320881,56760,101580
320930,56774,101579
320981,56757,101571
321042,56767,101566
321083,56757,101561
321134,56775,101578
321185,56732,101544
321241,56737,101563
321287,56749,101540
321338,56775,101582
321389,56729,101570
321443,56730,101562
321491,56729,101566
321542,56723,101573
321602,56747,101577
321645,56720,101570
321696,56722,101574
321747,56711,101581
321802,56748,101584
321849,56752,101573
321900,56723,101562
321951,56741,101572
322002,56740,101595
322053,56746,101537
322104,56732,101559
322163,56714,101556
322206,56732,101572
322257,56707,101593
322308,56723,101565
322363,56717,101570
322410,56726,101570
322461,56716,101572
322523,56706,101555
322563,56718,101566
322614,56711,101562
322665,56727,101568
322723,56705,101563
322767,56704,101554
322818,56715,101567
322870,56706,101554
322923,56707,101561
322972,56709,101566
323023,56707,101558
323082,56711,101579
323125,56710,101566
323176,56703,101558
323227,56685,101571
323282,56708,101577
323329,56695,101565
323380,56697,101571
323431,56696,101572
323482,56704,101575
323533,56695,101558
323584,56716,101563
323643,56700,101574
323686,56705,101563
323737,56704,101584
323788,56687,101570
323842,56700,101576
323890,56707,101574
323941,56713,101562
324003,56709,101564
324043,56700,101547
324095,56695,101565
324146,56713,101564
324203,56706,101563
324248,56706,101603
324299,56693,101573
324350,56684,101557
324403,56709,101564
324452,56709,101565
324503,56678,101550
324562,56681,101533
324605,56697,101549
324656,56670,101558
324707,56654,101563
324764,56648,101553
324809,56693,101552
324860,56646,101566
324911,56653,101563
324963,56681,101552
325013,56676,101533
325064,56643,101543
325124,56629,101545
325166,56630,101547
325217,56658,101542
325268,56645,101529
325324,56627,101536
325371,56620,101534
325422,56628,101540
325483,56634,101537
325524,56618,101519
325575,56609,101546
325626,56623,101542
325683,56621,101530
325728,56618,101546
325779,56621,101516
325830,56616,101533
325883,56621,101530
325932,56603,101535
325983,56606,101514
326044,56590,101501
326085,56603,101519
326136,56594,101531
326187,56608,101524
326243,56612,101521
326289,56597,101522
326340,56589,101517
326391,56618,101521
326443,56593,101520
326493,56584,101527
326545,56592,101527
326604,56581,101526
326647,56589,101530
326698,56607,101535
326749,56609,101523
326804,56605,101548
326851,56607,101545
326902,56606,101545
326963,56617,101535
327004,56615,101524
327055,56598,101527
327106,56591,101533
327163,56608,101513
327208,56608,101534
327259,56592,101519
327310,56590,101522
327364,56611,101510
327412,56610,101516
327463,56563,101510
327523,56602,101508
327565,56607,101520
327616,56603,101515
327667,56565,101515
327725,56559,101502
327770,56555,101487
327821,56598,101516
327872,56557,101518
327925,56544,101514
327974,56542,101531
328025,56544,101508
328084,56573,101505
328127,56545,101506
328178,56539,101508
328229,56550,101502
328284,56544,101492
328331,56528,101485
328382,56564,101482
328445,56529,101487
328484,56533,101512
328535,56515,101493
328586,56531,101484
328644,56533,101487
328688,56527,101483
328739,56512,101490
328790,56525,101487
328844,56515,101475
328892,56511,101481
328943,56498,101478
329005,56505,101468
329046,56506,101464
329097,56496,101471
329148,56481,101471
329205,56483,101466
329250,56480,101460
329301,56487,101466
329352,56482,101470
329405,56475,101472
329454,56472,101464
329505,56475,101465
329564,56477,101460
329607,56468,101459
329658,56478,101460
329709,56453,101462
329764,56467,101460
329811,56475,101471
329862,56478,101461
329913,56491,101453
329965,56490,101473
330015,56481,101435
330066,56470,101456
330124,56478,101458
330168,56463,101441
330220,56480,101476
330271,56462,101445
330324,56472,101451
330373,56481,101458
330424,56506,101462
330485,56516,101448
330526,56505,101471
330577,56505,101482
330628,56536,101480
330685,56534,101517
330730,56499,101501
330781,56530,101494
330832,56503,101498
330885,56536,101484
330934,56497,101492
330985,56487,101502
331045,56533,101501
331087,56535,101495
331138,56507,101496
331189,56517,101508
331245,56548,101506
331291,56546,101506
331342,56512,101517
331393,56531,101513
331445,56535,101516
331496,56538,101504
331547,56549,101529
331606,56531,101518
331649,56538,101528
331700,56541,101535
331751,56552,101540
331806,56541,101544
331853,56539,101534
331904,56544,101538
331965,56560,101531
332006,56542,101528
332057,56550,101539
332108,56544,101527
332165,56523,101533
332210,56526,101567
332261,56538,101517
332312,56535,101544
332366,56544,101547
332414,56541,101546
332465,56563,101554
332525,56568,101551
332567,56567,101533
332618,56575,101555
332670,56561,101544
332725,56557,101546
332772,56567,101543
332823,56560,101529
332874,56559,101529
332925,56547,101530
332976,56544,101532
333027,56561,101522
333086,56552,101525
333129,56548,101521
333180,56563,101529
333231,56553,101525
333286,56560,101523
333333,56538,101526
333384,56527,101507
333445,56539,101513
333486,56555,101492
333537,56533,101511
333588,56535,101496
333646,56533,101489
333690,56550,101508
333741,56525,101495
333792,56507,101501
333846,56541,101508
333895,56537,101499
333946,56480,101502
334007,56479,101501
334048,56527,101494
334099,56525,101494
334150,56501,101489
334207,56500,101495
334252,56488,101466
334303,56524,101475
334354,56523,101478
334407,56479,101488
334456,56506,101509
334507,56493,101480
334566,56506,101475
334609,56472,101473
334660,56486,101468
334711,56484,101474
334767,56464,101472
334813,56465,101464
334864,56483,101464
334926,56484,101468
334967,56471,101456
335017,56458,101462
335068,56470,101455
335126,56462,101444
335171,56458,101456
335222,56441,101428
335273,56461,101439
335326,56464,101448
335375,56450,101447
335426,56423,101440
335487,56440,101448
335528,56451,101447
335579,56444,101442
335630,56426,101437
335687,56429,101449
335732,56442,101417
335783,56425,101436
335834,56426,101419
335887,56420,101433
335936,56420,101436
335987,56422,101418
336047,56414,101421
336089,56427,101430
336140,56429,101422
336191,56400,101413
336247,56412,101405
336293,56423,101404
336345,56428,101413
336406,56412,101408
336447,56426,101428
336498,56422,101407
336549,56400,101395
336606,56409,101400
336651,56397,101410
336702,56437,101440
336753,56406,101385
336806,56413,101407
336855,56437,101422
336906,56407,101433
336967,56450,101455
337008,56424,101450
337059,56454,101451
337110,56440,101473
337167,56470,101477
337212,56434,101450
337263,56472,101458
337314,56462,101476
337368,56446,101478
337416,56438,101467
337467,56448,101473
337527,56468,101460
337569,56435,101450
337621,56429,101460
337672,56435,101459
337727,56451,101458
337774,56443,101462
337825,56424,101457
337876,56429,101452
337927,56434,101449
337978,56433,101433
338029,56423,101451
338088,56417,101445
338131,56424,101444
338182,56414,101461
338233,56412,101438
338288,56419,101442
338335,56417,101434
338386,56427,101418
338448,56416,101424
338488,56401,101421
338539,56398,101411
338590,56418,101425
338648,56390,101419
338692,56393,101429
338743,56398,101417
338794,56388,101416
338848,56388,101430
338897,56398,101425
338948,56388,101425
339007,56396,101406
339050,56382,101409
339101,56392,101421
339152,56393,101431
339207,56397,101437
339254,56400,101429
339305,56403,101423
339356,56374,101410
339407,56393,101416
339458,56409,101405
339509,56400,101405
339568,56380,101395
339611,56376,101388
339662,56399,101408
339713,56373,101392
339767,56367,101397
339815,56367,101397
339866,56378,101384
339928,56384,101371
339968,56366,101358
340019,56364,101390
340071,56393,101384
340128,56383,101361
340173,56381,101413
340224,56340,101365
340275,56350,101381
340328,56378,101385
340377,56375,101386
340428,56327,101394
340489,56319,101395
340530,56377,101367
340581,56325,101383
340632,56344,101379
340689,56331,101377
340734,56354,101378
340785,56315,101368
340836,56334,101368
340888,56346,101375
340938,56350,101363
340989,56337,101371
341049,56320,101379
341091,56325,101373
341142,56349,101385
341193,56353,101388
341249,56342,101408
341296,56355,101390
341347,56368,101410
341408,56381,101415
341449,56372,101402
341500,56371,101426
341551,56380,101423
341608,56381,101422
341653,56387,101439
341704,56386,101415
341755,56401,101439
341808,56405,101440
341857,56394,101446
341908,56384,101440
341969,56383,101431
342010,56403,101436
342061,56400,101452
342112,56406,101439
342168,56411,101443
342214,56408,101450
342265,56411,101443
342316,56447,101461
342368,56424,101457
342418,56421,101473
342469,56408,101468
342529,56419,101476
342572,56413,101477
342623,56427,101470
342674,56418,101475
342729,56410,101473
342776,56422,101470
342827,56415,101485
342888,56437,101455
342929,56436,101462
342980,56430,101482
343031,56434,101482
343088,56441,101467
343133,56442,101485
343184,56433,101460
343235,56423,101456
343288,56432,101452
343337,56437,101466
343388,56414,101461
343448,56439,101460
343490,56443,101453
343541,56438,101461
343592,56434,101467
343648,56440,101470
343694,56425,101439
343746,56447,101460
343797,56435,101447
343848,56416,101442
343899,56396,101462
343950,56416,101434
344009,56429,101416
344052,56429,101438
344103,56401,101437
344154,56403,101429
344209,56429,101452
344256,56397,101430
344307,56404,101436
344370,56395,101440
344409,56443,101419
344460,56393,101434
344511,56394,101436
344569,56425,101433
344613,56430,101426
344664,56386,101411
344715,56402,101438
344769,56431,101436
344817,56435,101430
344868,56396,101423
344930,56399,101436
344971,56433,101431
345022,56432,101428
345073,56414,101408
345130,56399,101426
345175,56394,101390
345226,56418,101416
345277,56414,101424
345330,56388,101417
345379,56396,101435
345430,56409,101414
345489,56414,101414
345532,56394,101406
345583,56403,101412
345634,56398,101404
345689,56387,101403
345736,56370,101378
345787,56418,101391
345849,56386,101392
345889,56384,101409
345940,56377,101393
345991,56391,101381
346049,56398,101377
346093,56391,101400
346144,56379,101383
346196,56401,101391
346249,56406,101402
346298,56408,101410
346349,56391,101411
346410,56414,101422
346451,56419,101415
346502,56422,101420
346553,56415,101433
346610,56425,101436
346655,56418,101425
346706,56426,101377
346757,56451,101437
346810,56447,101455
346859,56449,101452
346910,56459,101458
346969,56457,101441
347012,56443,101451
347063,56451,101448
347114,56432,101433
347170,56436,101425
347216,56449,101442
347267,56442,101439
347318,56462,101429
347370,56459,101453
347421,56460,101407
347472,56429,101411
347529,56440,101419
347574,56433,101425
347625,56464,101440
347676,56414,101382
347729,56421,101397
347778,56420,101414
347829,56421,101399
347890,56447,101421
347931,56413,101405
347982,56454,101411
348033,56433,101427
348090,56453,101444
348135,56415,101404
348186,56464,101428
348237,56435,101430
348291,56423,101434
348339,56424,101434
348390,56440,101441
348450,56468,101428
348492,56437,101428
348543,56436,101436
348594,56438,101444
348650,56464,101440
348697,56463,101441
348748,56437,101444
348799,56456,101445
348850,56465,101455
348901,56456,101428
348952,56466,101460
349011,56459,101440
349054,56448,101448
349105,56460,101476
349156,56454,101459
349211,56454,101469
349258,56460,101458
349309,56477,101452
349370,56473,101455
349411,56463,101439
349462,56470,101449
349513,56493,101453
349571,56465,101455
349615,56464,101470
349666,56464,101455
349717,56454,101451
349771,56446,101456
349819,56443,101452
349871,56455,101462
349930,56458,101460
349973,56447,101451
350024,56457,101455
350075,56448,101467
350130,56456,101464
350177,56467,101450
350228,56459,101463
350279,56446,101458
350330,56454,101456
350381,56458,101443
350432,56463,101450
350491,56459,101452
350534,56458,101445
350585,56470,101458
350636,56465,101467
350690,56455,101471
350738,56456,101452
350789,56471,101459
350851,56473,101468
350891,56462,101444
350942,56462,101469
350993,56461,101448
351051,56478,101447
351096,56486,101483
351147,56454,101440
351198,56459,101445
351251,56487,101460
351300,56478,101466
351351,56445,101480
351412,56438,101477
351453,56479,101445
351504,56481,101472
351555,56450,101470
351612,56450,101480
351657,56467,101473
351708,56437,101460
351759,56468,101470
351812,56437,101479
351861,56467,101475
351912,56455,101478
351972,56437,101478
352014,56438,101494
352065,56462,101497
352116,56448,101489
352172,56427,101492
352218,56424,101495
352269,56423,101481
352331,56428,101484
352372,56412,101471
352423,56419,101486
352474,56436,101485
352531,56425,101470
352576,56429,101487
352627,56413,101469
352678,56425,101466
352731,56427,101451
352780,56417,101479
352831,56405,101467
352892,56403,101457
352933,56416,101478
352984,56401,101468
353035,56412,101467
353092,56414,101475
353137,56424,101446
353188,56408,101456
353239,56439,101476
353291,56422,101476
353341,56419,101502
353392,56420,101484
353452,56421,101476
353494,56416,101496
353545,56418,101485
353597,56422,101479
353652,56410,101474
353699,56417,101474
353750,56438,101479
353811,56428,101485
353852,56424,101495
353903,56424,101497
353954,56418,101493
354011,56441,101482
354056,56432,101502
354107,56419,101470
354158,56415,101475
354211,56411,101477
354260,56432,101489
354311,56418,101467
354372,56415,101463
354413,56416,101478
354464,56435,101487
354515,56401,101496
354573,56398,101494
354617,56401,101475
354668,56444,101482
354719,56404,101505
354773,56394,101502
354822,56399,101508
354873,56406,101499
354932,56430,101488
354975,56400,101488
355026,56394,101498
355077,56394,101497
355132,56411,101492
355179,56424,101489
355230,56425,101487
355293,56394,101491
355332,56410,101521
355383,56391,101486
355434,56406,101492
355493,56376,101495
355536,56391,101493
355587,56379,101504
