Millis,Red,IR
1366453,59606,103038
1366504,59608,103058
1366558,59600,103036
1366614,59631,103045
1366664,59635,103057
1366717,59598,103067
1366775,59604,103053
1366823,59634,103039
1366876,59609,103068
1366935,59598,103078
1366983,59597,103074
1367036,59624,103066
1367094,59617,103063
1367142,59625,103047
1367195,59614,103051
1367255,59590,103053
1367301,59610,103053
1367354,59613,103062
1367415,59602,103058
1367461,59594,103057
1367514,59605,103066
1367574,59610,103055
1367620,59596,103033
1367673,59617,103052
1367734,59595,103046
1367779,59593,103046
1367833,59590,103049
1367895,59581,103027
1367939,59589,103024
1367992,59620,103044
1368054,59602,103036
1368098,59586,103059
1368151,59635,103064
1368214,59592,103043
1368258,59581,103049
1368311,59578,103058
1368364,59584,103041
1368417,59573,103028
1368470,59563,103036
1368523,59576,103050
1368576,59582,103042
1368629,59578,103033
1368683,59591,103043
1368736,59594,103040
1368789,59603,103034
1368842,59592,103071
1368895,59606,103066
1368948,59601,103066
1369001,59608,103055
1369054,59599,103033
1369108,59590,103045
1369161,59591,103053
1369215,59605,103045
1369267,59616,103045
1369320,59594,103037
1369374,59589,103050
1369426,59623,103066
1369479,59592,103031
1369534,59587,103044
1369586,59589,103038
1369639,59603,103042
1369695,59613,103031
1369745,59575,103057
1369798,59586,103048
1369855,59602,103043
1369904,59592,103016
1369958,59577,103051
1370016,59565,103053
1370064,59565,103073
1370117,59598,103064
1370175,59604,103061
1370223,59563,103043
1370276,59584,103069
1370335,59619,103073
1370383,59611,103047
1370436,59584,103034
1370496,59569,103036
1370542,59558,103032
1370595,59577,103042
1370655,59587,103037
1370701,59551,103033
1370754,59587,103047
1370815,59599,103048
1370861,59584,103048
1370914,59555,103052
1370976,59565,103039
1371020,59584,103051
1371073,59560,103033
1371136,59543,103024
1371179,59538,103017
1371233,59557,103036
1371295,59565,103021
1371339,59545,103024
1371392,59550,103036
1371445,59577,103031
1371498,59579,103037
1371551,59572,103037
1371604,59599,103049
1371658,59597,103053
1371711,59589,103053
1371764,59586,103060
1371817,59578,103050
1371870,59580,103037
1371923,59588,103048
1371976,59572,103031
1372029,59582,103062
1372083,59585,103052
1372136,59596,103063
1372189,59606,103055
1372242,59586,103041
1372296,59593,103046
1372348,59601,103066
1372401,59601,103073
1372456,59605,103090
1372508,59598,103064
1372561,59593,103054
1372615,59580,103051
1372667,59583,103046
1372720,59586,103043
1372776,59596,103050
1372826,59584,103045
1372879,59612,103080
1372936,59607,103020
1372986,59516,102979
1373039,59147,102498
1373095,58680,102102
1373145,58112,101659
1373198,57251,101349
1373255,56967,101255
1373304,56574,101179
1373358,56086,101225
1373416,55915,101353
1373464,55780,101444
1373517,55618,101558
1373577,55605,101550
1373623,55609,101560
1373676,55458,101543
1373737,55415,101516
1373783,55379,101480
1373836,55351,101446
1373896,55419,101435
1373942,55472,101370
1373995,55576,101290
1374057,55605,101264
1374101,55685,101289
1374154,55789,101252
1374217,55955,101133
1374261,56334,101209
1374314,57000,101361
1374376,57140,101529
1374420,57737,102187
1374473,58838,102664
1374536,59463,103675
1374579,60758,104811
1374633,61900,105059
1374686,62146,105350
1374739,62450,105539
1374792,62584,105565
1374845,62805,105667
1374898,62637,105459
1374951,61779,104347
1375004,60121,103459
1375058,59531,102948
1375111,58818,102434
1375164,58019,102140
1375217,57722,102090
1375270,57487,102045
1375323,57137,102007
1375376,56973,102012
1375429,56877,102044
1375483,56733,102063
1375537,56683,102038
1375589,56622,102051
1375642,56537,102033
1375696,56508,102004
1375748,56481,101943
1375801,56503,101856
1375856,56548,101771
1375908,56655,101717
1375961,56957,101696
1376017,57340,101812
1376067,57515,101813
1376120,58834,103117
1376176,59936,104043
1376226,60328,104057
1376279,62068,106173
1376336,63846,106733
1376386,63485,106160
1376439,63581,106509
1376497,63651,106485
1376545,63614,106654
1376598,63886,106380
1376657,62695,105154
1376704,61407,104423
1376758,59802,103043
1376816,58826,102693
1376864,58442,102584
1376917,57907,102428
1376977,57690,102414
1377023,57504,102422
1377076,57337,102432
1377137,57281,102450
1377183,57245,102447
1377236,57092,102417
1377298,57052,102384
1377342,57029,102361
1377395,57000,102263
1377457,57063,102164
1377501,57124,102083
1377554,57535,102115
1377617,57864,102259
1377661,58515,102748
1377714,60156,104259
1377778,60740,104411
1377820,61476,105914
1377873,63681,106758
1377926,62497,105832
1377979,63440,107166
1378032,64924,102313
1378086,63844,106899
1378139,64229,107144
1378192,64422,107137
1378245,64537,107334
1378298,64676,107298
1378351,64104,106192
1378404,61083,104408
1378457,60483,103711
1378511,59545,103187
1378564,58854,102974
1378618,58595,102893
1378670,58363,102842
1378723,57907,102800
1378778,57700,102812
1378829,57622,102788
1378882,57498,102761
1378937,57420,102739
1378989,57358,102739
1379042,57220,102697
1379098,57168,102681
1379148,57160,102619
1379201,57158,102503
1379258,57200,102412
1379307,57269,102312
1379361,57666,102299
1379417,57874,102360
1379467,58311,102595
1379520,59129,103656
1379578,60539,104504
1379626,61150,105141
1379679,62354,105666
1379738,62359,105714
1379786,62862,106367
1379839,63907,106795
1379897,63839,106794
1379945,63913,106747
1379998,63457,106448
1380057,63486,106583
1380104,63725,106935
1380157,64473,107196
1380218,64138,106584
1380264,63205,105921
1380317,61872,104952
1380377,61130,104169
1380423,60100,103517
1380476,59148,103230
1380537,59017,103189
1380582,58876,103155
1380636,58627,103106
1380698,58499,103047
1380742,58370,103064
1380795,58059,103074
1380859,57953,103066
1380901,57885,103056
1380954,57732,103018
1381007,57705,102935
1381061,57732,102832
1381114,57782,102702
1381167,58142,102719
1381220,58348,102731
1381273,58613,102864
1381326,59364,104107
1381379,61250,104840
1381432,60881,104178
1381486,61093,105030
1381539,61788,105199
1381592,61310,104432
1381645,62608,106016
1381699,62281,104996
1381751,61609,105629
1381804,62608,105963
1381859,63019,106299
1381911,63344,106548
1381964,64255,107253
1382018,64770,107759
1382070,65307,107943
1382123,64076,106392
1382178,62789,105548
1382229,61915,104958
1382282,60092,103633
1382339,59691,103495
1382389,59336,103362
1382442,58921,103287
1382498,58790,103268
1382548,58645,103243
1382601,58438,103260
1382658,58349,103293
1382707,58261,103316
1382761,58104,103271
1382819,58076,103208
1382867,58032,103153
1382920,58062,103022
1382978,58110,102964
1383026,58223,102918
1383079,58703,102989
1383138,58795,102951
1383186,58930,103194
1383239,60046,103642
1383299,60125,104119
1383345,60964,105006
1383398,61964,105422
1383459,62220,105555
1383504,62362,106146
1383557,62806,105669
1383618,62703,106195
1383664,63311,106406
1383717,63990,107031
1383779,64402,107387
1383823,64913,107855
1383876,65528,107721
1383939,64469,106690
1383982,63243,105951
1384036,61880,104823
1384098,61064,104293
1384142,60545,104002
1384195,60111,103721
1384248,59426,103432
1384301,59177,103367
1384354,58892,103312
1384407,58549,103297
1384461,58477,103319
1384514,58377,103306
1384567,58208,103257
1384620,58181,103244
1384673,58129,103177
1384726,58133,103002
1384779,58232,102936
1384832,58382,102921
1384886,58797,103014
1384940,59333,103276
1384992,59624,103502
1385045,60719,104165
1385099,60796,104649
1385151,61598,105026
1385204,61621,105419
1385259,62629,106267
1385311,63836,107001
1385364,65039,107815
1385420,65364,108050
1385470,65653,108073
1385523,65386,107856
1385580,65338,107897
1385629,65451,107933
1385682,65965,108324
1385739,65943,108094
1385789,65013,106937
1385842,62998,105823
1385900,62424,105176
1385948,61410,104413
1386001,60250,103818
1386060,59910,103699
1386107,59634,103587
1386161,59093,103446
1386219,58917,103446
1386267,58801,103489
1386320,58611,103471
1386380,58526,103457
1386426,58459,103403
1386479,58394,103323
1386540,58363,103276
1386586,58355,103246
1386639,58362,103136
1386699,58408,103056
1386745,58523,102980
1386798,59762,103694
1386859,60409,104089
1386904,61453,105199
1386957,62514,106126
1387020,63419,106601
1387064,63649,106608
1387117,64731,107567
1387179,65450,108243
1387223,65896,108230
1387276,65940,108260
1387339,65864,108122
1387382,65724,108097
1387436,65797,108203
1387489,66038,108342
1387542,66022,108295
1387595,65978,105277
1387648,66054,108400
1387701,66181,108469
1387754,66265,108494
1387807,66283,108493
1387861,66270,108479
1387914,66275,108490
1387967,66292,108518
1388020,66310,108507
1388073,66310,108504
1388126,66275,108477
1388179,66273,108447
1388232,66269,108479
1388286,66275,108460
1388340,66266,108437
1388392,66228,108418
1388445,66241,108434
1388499,66235,108420
1388551,66233,108411
1388604,66244,108425
1388659,66232,108410
1388711,66196,108376
1388764,66200,108403
1388820,66252,108413
1388870,66191,108398
1388923,66179,108402
1388980,66233,108399
1389029,66213,108348
1389082,66141,108351
1389141,66135,108365
1389189,66123,108373
1389242,66161,108374
1389300,66187,108376
1389348,66139,108338
1389401,66094,108318
1389460,66134,108337
1389507,66156,108337
1389561,66098,108286
1389621,66069,108294
1389667,66082,108301
1389720,66058,108248
1389780,66061,108268
1389826,66046,108249
1389879,66028,108238
1389940,66049,108253
1389986,66054,108252
1390039,65980,108202
1390101,65990,108218
1390145,66027,108225
1390198,65972,108197
1390261,65980,108208
1390304,65996,108193
1390357,65957,108165
1390420,65953,108164
1390464,65949,108170
1390517,65947,108155
1390570,65889,108123
1390623,65917,108138
1390676,65934,108145
1390729,65910,108094
1390782,65891,108098
1390836,65901,108119
1390889,65886,108086
1390942,65877,108083
1390995,65881,108084
1391048,65876,108078
1391101,65855,108032
1391154,65830,108063
1391207,65841,108039
1391261,65812,108019
1391314,65798,108021
1391367,65822,108027
1391421,65798,107992
1391473,65767,107985
1391526,65792,108014
1391581,65784,108024
1391632,65743,107977
1391686,65778,108011
1391740,65791,108001
1391792,65735,107946
1391845,65732,107940
1391901,65727,107947
1391951,65720,107915
1392004,65667,107904
1392061,65686,107925
1392111,65700,107914
1392164,65649,107879
1392220,65658,107888
1392270,65664,107883
1392323,65638,107880
1392380,65646,107891
1392429,65642,107887
1392482,65631,107849
1392541,65620,107826
1392589,65607,107820
1392642,65562,107792
1392700,65560,107782
1392748,65575,107804
1392801,65550,107775
1392860,65553,107774
1392907,65534,107773
1392961,65507,107745
1393021,65524,107751
1393067,65535,107749
1393120,65491,107754
1393182,65471,107735
1393226,65508,107726
1393279,65426,107700
1393342,65419,107677
1393386,65417,107669
1393439,65426,107670
1393501,65425,107660
1393545,65403,107676
1393598,65402,107646
1393661,65407,107632
1393704,65386,107641
1393757,65348,107619
1393811,65373,107653
1393864,65399,107641
1393917,65368,107587
1393970,65328,107599
1394023,65325,107591
1394076,65322,107570
1394129,65249,107545
1394182,65263,107553
1394236,65276,107546
1394289,65254,107528
1394342,65257,107536
1394395,65251,107546
1394448,65255,107482
1394501,65241,107508
1394554,65252,107507
1394607,65184,107475
1394662,65198,107478
1394714,65209,107490
1394767,65151,107451
1394821,65159,107443
1394873,65145,107433
1394926,65095,107412
1394981,65132,107440
1395032,65163,107425
1395086,65091,107376
1395142,65087,107394
1395192,65104,107407
1395245,65087,107382
1395301,65084,107377
1395351,65081,107344
1395404,65055,107345
1395461,65033,107313
1395511,65019,107312
1395564,65015,107293
1395622,65003,107290
1395670,64982,107290
1395723,64974,107282
1395782,64995,107284
1395829,64977,107263
1395882,64923,107241
1395941,64954,107257
1395989,64955,107258
1396042,64924,107213
1396102,64921,107211
1396148,64893,107212
1396201,64885,107157
1396262,64862,107143
1396307,64873,107173
1396361,64833,107131
1396423,64832,107153
1396467,64836,107163
1396520,64747,107099
1396582,64791,107138
1396626,64808,107147
1396679,64761,107099
1396742,64761,107095
1396786,64758,107134
1396839,64753,107056
1396903,64686,107053
1396945,64742,107051
1396998,64713,107052
1397051,64700,107053
1397104,64727,107046
1397157,64711,107117
1397211,64672,107007
1397264,64655,107003
1397317,64657,106987
1397370,64670,107004
1397423,64661,106984
1397476,64624,106979
1397529,64618,106965
1397582,64620,106953
1397636,64609,106943
1397689,64557,106922
1397743,64561,106916
1397795,64588,106941
1397848,64535,106894
1397903,64525,106911
1397954,64549,106919
1398007,64505,106862
1398062,64504,106885
1398114,64536,106900
1398167,64484,106842
1398223,64458,106849
1398273,64490,106843
1398326,64422,106800
1398383,64390,106805
1398432,64414,106815
1398486,64392,106812
1398542,64409,106812
1398592,64410,106788
1398645,64382,106771
1398703,64361,106782
1398751,64383,106800
1398804,64405,106762
1398863,64357,106752
1398911,64344,106732
1398964,64319,106718
1399022,64324,106707
1399070,64319,106696
1399123,64281,106696
1399182,64294,106709
1399229,64293,106688
1399282,64250,106663
1399343,64269,106663
1399389,64274,106660
1399442,64234,106640
1399502,64263,106642
1399548,64264,106656
1399601,64170,106595
1399662,64193,106593
1399707,64188,106589
1399761,64174,106586
1399823,64179,106595
1399867,64158,106612
1399920,64151,106584
1399984,64113,106567
1400026,64133,106549
1400079,64109,106567
1400132,64136,106557
1400186,64119,106538
1400239,64124,106532
1400292,64107,106509
1400345,64056,106499
1400398,64062,106501
1400451,64048,106479
1400504,64032,106476
1400557,64016,106487
1400611,64055,106487
1400664,64030,106478
1400717,64023,106486
1400770,64046,106464
1400824,63999,106447
1400876,64011,106460
1400929,63989,106439
1400984,63976,106420
1401036,63978,106443
1401089,63943,106381
1401143,63920,106391
1401195,63956,106417
1401248,63941,106371
1401303,63919,106378
1401354,63933,106382
1401407,63925,106368
1401464,63888,106364
1401514,63897,106372
1401567,63902,106376
1401623,63899,106342
1401673,63869,106330
1401726,63892,106346
1401783,63878,106334
1401832,63863,106332
1401886,63868,106314
1401944,63849,106320
1401992,63851,106308
1402045,63844,106312
1402103,63846,106290
1402151,63841,106302
1402204,63844,106298
1402263,63832,106284
1402311,63812,106281
1402364,63813,106258
1402424,63801,106257
1402470,63795,106251
1402523,63799,106229
1402584,63801,106239
1402629,63809,106254
1402682,63730,106195
1402743,63778,106219
1402789,63771,106216
1402842,63744,106218
1402904,63774,106228
1402948,63750,106206
1403001,63701,106187
1403064,63724,106182
1403107,63704,106183
1403161,63706,106181
1403214,63700,106161
1403267,63735,106183
1403320,63717,106163
1403373,63702,106144
1403426,63679,106147
1403479,63723,106150
1403532,63686,106139
1403586,63681,106132
1403639,63672,106119
1403692,63697,106132
1403745,63673,106106
1403798,63635,106119
1403851,63678,106105
1403904,63669,106105
1403957,63649,106097
1404011,63671,106104
1404065,63667,106080
1404117,63640,106085
1404170,63649,106071
1404224,63659,106099
1404276,63655,106092
1404329,63634,106075
1404384,63631,106067
1404436,63639,106071
1404489,63606,106036
1404545,63596,106039
1404595,63615,106041
1404648,63598,106048
1404704,63623,106045
1404754,63612,106036
1404807,63607,106043
1404864,63612,106031
1404914,63612,106020
1404967,63611,106024
1405025,63605,106031
1405073,63581,106009
1405126,63601,106012
1405185,63573,106000
1405232,63584,105985
1405286,63588,105998
1405344,63619,106017
1405392,63595,105989
1405445,63605,105994
1405505,63612,106009
1405551,63590,105971
1405604,63582,105997
1405665,63620,105986
1405711,63629,105981
1405764,63563,105963
1405824,63590,105941
1405870,63602,105970
1405923,63566,105937
1405985,63598,105937
1406029,63562,105949
1406082,63589,105968
1406145,63594,105956
1406189,63545,105980
1406242,63604,105977
1406306,63569,105968
1406348,63596,105959
1406401,63556,105953
1406454,63567,105948
1406507,63582,105933
1406561,63568,105921
1406614,63526,105916
1406667,63541,105919
1406720,63572,105921
1406773,63547,105918
1406826,63566,105928
1406879,63569,105919
1406932,63548,105911
1406986,63560,105923
1407039,63573,105925
1407092,63568,105906
1407146,63544,105877
1407198,63541,105899
1407251,63536,105872
1407306,63518,105855
1407357,63518,105873
1407411,63539,105868
1407465,63543,105877
1407517,63544,105862
1407570,63525,105871
1407626,63538,105880
1407676,63537,105856
1407729,63529,105870
1407786,63536,105869
1407836,63516,105857
1407889,63491,105843
1407945,63508,105839
1407995,63506,105818
1408048,63510,105819
1408106,63511,105856
1408154,63536,105873
1408207,63556,105827
1408266,63515,105823
1408314,63530,105840
1408367,63519,105839
1408425,63530,105833
1408473,63540,105843
1408526,63503,105817
1408585,63503,105818
1408632,63504,105809
1408686,63511,105797
1408746,63520,105794
1408792,63538,105800
1408845,63508,105785
1408905,63527,105796
1408951,63540,105803
1409004,63486,105808
1409067,63514,105789
1409111,63508,105787
1409164,63499,105797
1409226,63517,105793
1409270,63479,105785
1409323,63475,105777
1409387,63483,105772
1409429,63506,105764
1409482,63484,105783
1409536,63498,105768
1409589,63510,105766
1409642,63508,105758
1409695,63515,105757
1409748,63474,105764
1409801,63510,105772
1409854,63497,105761
1409907,63475,105741
1409961,63462,105711
1410014,63472,105728
1410067,63479,105734
1410120,63476,105756
1410173,63494,105741
1410227,63478,105742
1410279,63483,105731
1410332,63463,105718
1410387,63473,105719
1410439,63488,105734
1410492,63459,105685
1410546,63459,105711
1410598,63455,105699
1410651,63422,105674
1410706,63436,105674
1410757,63440,105677
1410811,63444,105686
1410867,63442,105696
1410917,63432,105683
1410970,63437,105697
1411026,63444,105684
1411076,63432,105666
1411129,63458,105696
1411186,63445,105673
1411236,63423,105645
1411289,63417,105639
1411347,63421,105647
1411395,63437,105650
1411448,63422,105648
1411506,63434,105657
1411554,63451,105660
1411607,63421,105643
1411666,63443,105664
1411714,63444,105650
1411767,63450,105649
1411827,63441,105657
1411873,63434,105642
1411926,63417,105610
1411987,63430,105603
1412032,63435,105625
1412086,63404,105601
1412146,63424,105621
1412192,63417,105611
1412245,63392,105600
1412307,63428,105609
1412351,63404,105600
1412404,63392,105606
1412467,63430,105617
1412511,63398,105621
1412564,63403,105595
1412628,63366,105583
1412670,63397,105568
1412723,63365,105574
1412776,63390,105581
1412829,63411,105582
1412882,63411,105626
1412936,63388,105565
1412989,63383,105568
1413042,63377,105548
1413095,63397,105576
1413148,63396,105554
1413201,63363,105556
1413254,63365,105543
1413307,63360,105534
1413361,63360,105539
1413414,63354,105533
1413468,63348,105521
1413520,63356,105534
1413573,63359,105525
1413627,63354,105547
1413679,63350,105531
1413732,63360,105523
1413787,63366,105528
1413839,63358,105519
1413892,63343,105513
1413948,63310,105505
1413998,63324,105498
1414051,63314,105501
1414108,63313,105505
1414157,63327,105513
1414211,63334,105521
1414267,63345,105507
1414317,63341,105493
1414370,63339,105501
1414428,63343,105524
1414476,63345,105519
1414529,63349,105498
1414588,63321,105476
1414636,63319,105483
1414689,63307,105470
1414747,63300,105474
1414795,63300,105472
1414848,63325,105472
1414908,63331,105475
1414954,63308,105463
1415007,63304,105452
1415068,63314,105458
1415114,63329,105447
1415167,63299,105445
1415227,63306,105438
1415273,63311,105453
1415326,63257,105453
1415389,63253,105421
1415432,63240,105406
1415486,63270,105436
1415548,63276,105442
1415592,63244,105453
1415645,63262,105441
1415709,63248,105439
1415751,63276,105443
1415804,63251,105432
1415857,63264,105429
1415911,63273,105429
1415964,63265,105421
1416017,63222,105385
1416070,63218,105390
1416123,63240,105396
1416176,63214,105401
1416229,63223,105406
1416282,63224,105396
1416336,63233,105394
1416389,63219,105402
1416442,63220,105406
1416495,63241,105404
1416549,63216,105383
1416601,63215,105397
1416654,63209,105376
1416709,63187,105341
1416761,63191,105367
1416814,63200,105353
1416868,63191,105359
1416920,63208,105379
1416973,63182,105375
1417029,63196,105376
1417079,63208,105368
1417132,63194,105365
1417189,63187,105385
1417239,63193,105375
1417292,63175,105365
1417348,63179,105351
1417398,63162,105338
1417451,63179,105349
1417508,63159,105346
1417557,63168,105368
1417611,63194,105341
1417669,63159,105347
1417717,63169,105343
1417770,63170,105328
1417828,63163,105331
1417876,63170,105346
1417929,63154,105328
1417988,63157,105338
1418036,63146,105321
1418089,63137,105294
1418149,63125,105286
1418195,63143,105312
1418248,63135,105297
1418308,63138,105286
1418354,63157,105316
1418407,63098,105283
1418468,63132,105290
1418514,63132,105285
1418567,63103,105295
1418629,63129,105288
1418673,63099,105267
1418726,63069,105275
1418789,63105,105272
1418832,63072,105266
1418886,63052,105259
1418939,63077,105269
1418992,63111,105270
1419045,63107,105255
1419098,63083,105257
1419151,63069,105265
1419204,63097,105258
1419257,63070,105245
1419311,63058,105248
1419364,63059,105237
1419417,63064,105223
1419470,63043,105216
1419523,63022,105249
1419576,63075,105248
1419629,63062,105246
1419682,63054,105235
1419736,63059,105248
1419790,63059,105221
1419842,63038,105224
1419895,63057,105248
1419949,63070,105263
1420001,63041,105231
1420054,63028,105211
1420109,63041,105204
1420161,63022,105198
1420214,63016,105205
1420270,63021,105200
1420320,63013,105202
1420373,63005,105214
1420429,63025,105215
1420479,63007,105183
1420532,62990,105212
1420589,63022,105213
1420639,63029,105180
1420692,62974,105179
1420750,62967,105195
1420798,62991,105190
1420851,62971,105154
1420910,62935,105159
1420957,62959,105169
1421011,62978,105167
1421069,62961,105168
1421117,62964,105158
1421170,62985,105153
1421230,62958,105164
1421276,62967,105151
1421329,62973,105156
1421390,62971,105147
1421436,62960,105127
1421489,62923,105128
1421549,62940,105138
1421595,62932,105125
1421648,62933,105126
1421710,62950,105121
1421754,62932,105092
1421807,62939,105101
1421870,62940,105107
1421914,62952,105139
1421967,62920,105103
1422031,62894,105100
1422073,62918,105095
1422126,62872,105097
1422179,62885,105098
1422232,62914,105098
1422286,62918,105104
1422339,62890,105108
1422392,62891,105108
1422445,62899,105108
1422498,62897,105105
1422551,62919,105110
1422604,62900,105093
1422657,62900,105105
1422711,62921,105108
1422764,62911,105107
1422817,62896,105072
1422871,62872,105075
1422923,62888,105083
1422976,62873,105069
1423031,62873,105072
1423082,62873,105084
1423136,62870,105056
1423190,62871,105080
1423242,62887,105088
1423295,62862,105072
1423351,62855,105075
1423401,62881,105068
1423454,62857,105043
1423511,62837,105051
1423561,62847,105049
1423614,62820,105030
1423670,62836,105046
1423720,62852,105040
1423773,62846,105038
1423831,62822,105043
1423879,62832,105074
1423932,62838,105040
1423991,62798,105034
1424039,62807,105030
1424092,62800,105016
1424150,62784,104995
1424198,62772,104992
1424251,62778,104994
1424310,62774,104988
1424357,62776,104997
1424411,62783,104975
1424471,62764,104973
1424517,62765,104971
1424570,62760,104975
1424630,62768,104965
1424676,62760,104975
1424729,62724,104955
1424790,62745,104945
1424836,62719,104918
1424889,62729,104938
1424951,62739,104928
1424995,62749,104928
1425048,62715,104919
1425110,62741,104924
1425154,62745,104944
1425207,62723,104943
1425261,62712,104945
1425314,62740,104935
1425367,62737,104920
1425420,62689,104914
1425473,62674,104919
1425526,62722,104917
1425579,62688,104918
1425632,62681,104921
1425686,62693,104901
1425739,62699,104914
1425792,62706,104910
1425845,62716,104951
1425898,62711,104894
1425952,62651,104902
1426004,62681,104914
1426057,62668,104878
1426112,62641,104867
1426164,62645,104882
1426217,62659,104872
1426271,62652,104895
1426323,62644,104890
1426376,62652,104875
1426431,62650,104864
1426482,62644,104872
1426536,62645,104864
1426592,62639,104862
1426642,62630,104860
1426695,62604,104827
1426751,62607,104843
1426801,62610,104822
1426854,62599,104845
1426911,62614,104839
1426961,62605,104824
1427014,62587,104852
1427072,62594,104834
1427120,62594,104830
1427173,62603,104855
1427231,62607,104844
1427279,62599,104842
1427332,62596,104841
1427391,62608,104830
1427439,62596,104818
1427492,62593,104817
1427552,62584,104833
1427598,62593,104815
1427651,62598,104809
1427712,62594,104818
1427757,62605,104818
1427810,62583,104819
1427871,62590,104827
1427917,62591,104822
1427970,62585,104806
1428032,62581,104805
1428076,62565,104788
1428129,62566,104787
1428192,62560,104778
1428235,62567,104812
1428289,62571,104767
1428351,62546,104784
1428395,62580,104799
1428448,62556,104799
1428501,62550,104793
1428554,62572,104794
1428607,62569,104798
1428660,62520,104803
1428714,62520,104796
1428767,62518,104788
1428820,62523,104785
1428873,62535,104770
1428926,62494,104757
1428979,62491,104773
1429032,62521,104767
1429085,62517,104769
1429139,62513,104761
1429193,62493,104748
1429245,62488,104764
1429298,62499,104758
1429352,62502,104757
1429404,62482,104776
1429457,62492,104756
1429512,62490,104762
1429564,62479,104768
1429617,62469,104767
1429673,62462,104750
1429723,62462,104742
1429776,62474,104747
1429833,62455,104742
1429882,62454,104753
1429935,62457,104744
1429992,62461,104744
1430042,62468,104733
1430095,62471,104750
1430153,62449,104757
1430201,62465,104770
1430254,62477,104751
1430313,62441,104743
1430360,62429,104745
1430414,62438,104732
1430472,62436,104729
1430520,62445,104738
1430573,62436,104736
1430633,62446,104738
1430679,62453,104755
1430732,62446,104752
1430793,62438,104740
1430839,62433,104750
1430892,62447,104757
1430952,62440,104755
1430998,62432,104757
1431051,62415,104743
1431112,62414,104742
1431157,62419,104742
1431210,62404,104736
1431273,62407,104739
1431317,62410,104726
1431370,62416,104752
1431432,62429,104737
1431476,62405,104766
1431529,62438,104753
1431592,62411,104731
1431635,62411,104738
1431689,62414,104746
1431742,62403,104740
1431795,62404,104733
1431848,62390,104740
1431901,62369,104728
1431954,62378,104726
1432007,62391,104697
1432060,62392,104726
1432114,62400,104712
1432167,62403,104717
1432220,62376,104725
1432273,62383,104708
1432326,62398,104725
1432379,62368,104715
1432432,62375,104701
1432485,62371,104721
1432539,62344,104697
1432593,62373,104708
1432645,62380,104710
1432698,62356,104687
1432752,62363,104698
1432804,62382,104713
1432857,62357,104718
1432914,62342,104706
1432964,62339,104706
1433017,62351,104713
1433073,62377,104721
1433123,62325,104718
1433176,62325,104708
1433233,62343,104704
1433282,62347,104684
1433335,62326,104693
1433394,62313,104710
1433442,62320,104721
1433495,62356,104703
1433553,62337,104710
1433601,62314,104706
1433654,62321,104697
1433713,62345,104707
1433760,62334,104700
1433814,62311,104685
1433874,62304,104694
1433920,62295,104691
1433973,62278,104669
1434033,62284,104690
1434079,62305,104710
1434132,62294,104680
1434193,62295,104675
1434239,62291,104679
1434292,62272,104687
1434354,62288,104673
1434398,62289,104655
1434451,62273,104654
1434514,62260,104650
1434557,62259,104650
1434610,62275,104643
1434673,62274,104651
1434717,62272,104664
1434770,62259,104673
1434823,62251,104669
1434876,62280,104677
1434929,62267,104656
1434982,62275,104671
1435035,62266,104662
1435089,62264,104657
1435142,62215,104622
1435195,62210,104636
1435248,62242,104627
1435301,62241,104637
1435354,62218,104623
1435407,62217,104657
1435460,62249,104643
1435514,62233,104636
1435567,62224,104618
1435620,62221,104619
1435674,62211,104599
1435726,62195,104597
1435779,62183,104595
1435834,62182,104624
1435885,62191,104607
1435939,62186,104599
1435993,62185,104603
1436045,62189,104607
1436098,62176,104581
1436154,62183,104588
1436204,62179,104603
1436257,62155,104584
1436314,62178,104577
1436364,62170,104569
1436417,62132,104559
1436473,62150,104575
1436523,62168,104553
1436576,62148,104557
1436633,62150,104569
1436682,62148,104585
1436735,62173,104560
1436794,62167,104552
1436842,62163,104566
1436895,62117,104558
1436955,62117,104535
1437001,62152,104552
1437054,62109,104565
1437115,62112,104550
1437160,62108,104545
1437214,62106,104569
1437274,62148,104577
1437320,62159,104542
1437373,62112,104550
1437435,62104,104541
1437479,62141,104539
1437532,62085,104521
1437595,62085,104518
1437639,62088,104511
1437692,62118,104531
1437754,62119,104520
1437798,62096,104551
1437851,62128,104517
1437914,62108,104512
1437957,62089,104525
1438010,62094,104528
1438064,62097,104499
1438117,62086,104498
1438170,62078,104481
1438223,62082,104487
1438276,62057,104481
1438329,62078,104491
1438382,62074,104493
1438435,62069,104499
1438489,62074,104486
1438542,62079,104491
1438595,62086,104506
1438648,62072,104521
1438701,62095,104474
1438754,62069,104472
1438807,62075,104474
1438860,62052,104451
1438915,62048,104427
1438967,62062,104461
1439020,62057,104450
1439074,62053,104484
1439126,62065,104481
1439179,62051,104458
1439234,62057,104464
1439285,62070,104474
1439339,62065,104461
1439395,62055,104468
1439445,62060,104469
1439498,62038,104457
1439554,62053,104451
1439604,62037,104427
1439657,62037,104441
1439714,62040,104439
1439764,62042,104421
1439817,62049,104437
1439875,62042,104453
1439923,62057,104451
1439976,62068,104438
1440035,62038,104440
1440082,62059,104450
1440135,62065,104448
1440194,62076,104451
1440242,62059,104453
1440295,62072,104439
1440355,62042,104435
1440401,62041,104418
1440454,62057,104426
1440515,62042,104416
1440560,62050,104414
1440614,62047,104437
1440674,62059,104432
1440720,62046,104426
1440773,62067,104431
1440835,62049,104429
1440879,62048,104403
1440932,62078,104433
1440995,62061,104432
1441039,62068,104461
1441092,62039,104412
1441154,62056,104419
1441198,62062,104431
1441251,62034,104413
1441304,62034,104407
1441357,62052,104424
1441410,62066,104424
1441464,62023,104440
1441517,62020,104434
1441570,62020,104427
1441623,62027,104440
1441676,62055,104431
1441729,62025,104434
1441782,62035,104434
1441835,62040,104431
1441889,62040,104439
1441942,62042,104405
1441996,61998,104389
1442048,62023,104414
1442101,62027,104421
1442156,62016,104413
1442207,62021,104427
1442260,62038,104425
1442315,62030,104423
1442367,62032,104426
1442420,62028,104432
1442476,62027,104421
1442526,62026,104414
1442579,62032,104410
1442636,62023,104413
1442685,62015,104408
1442739,62008,104408
1442795,62011,104403
1442845,62018,104408
1442898,62022,104428
1442956,62006,104426
1443004,62020,104445
1443057,62040,104410
1443116,62005,104419
1443164,62012,104421
1443217,62027,104416
1443275,62014,104407
1443323,61990,104405
1443376,62004,104402
1443435,61995,104406
1443482,61988,104393
1443535,62008,104389
1443596,61992,104387
1443642,62005,104398
1443695,61992,104398
1443755,62001,104388
1443801,62001,104391
1443854,61970,104397
1443915,62003,104404
1443960,61998,104358
1444014,61986,104373
1444076,61990,104374
1444120,62002,104365
1444173,61943,104350
1444235,61975,104349
1444279,61991,104377
1444332,61956,104377
1444385,61965,104375
1444439,61993,104374
1444492,61989,104358
1444545,61949,104372
1444598,61942,104378
1444651,61985,104383
1444704,61946,104370
1444757,61924,104342
1444810,61926,104339
1444864,61945,104355
1444917,61958,104351
1444970,61950,104379
1445023,61963,104343
1445077,61931,104353
1445129,61936,104355
1445182,61940,104356
1445237,61937,104357
1445289,61923,104364
1445342,61938,104348
1445396,61932,104369
1445448,61916,104343
1445501,61916,104349
1445556,61924,104344
1445607,61921,104344
1445660,61924,104337
1445717,61925,104338
1445767,61921,104341
1445820,61912,104334
1445876,61932,104345
1445926,61924,104328
1445979,61915,104343
1446036,61920,104332
1446085,61917,104332
1446139,61900,104332
1446197,61891,104332
1446245,61895,104327
1446298,61913,104341
1446356,61909,104331
1446404,61894,104323
1446457,61911,104335
1446516,61926,104338
1446564,61899,104330
1446617,61918,104319
1446677,61896,104330
1446723,61892,104313
1446776,61904,104312
1446837,61891,104291
1446882,61896,104321
1446935,61866,104288
1446996,61902,104302
1447042,61889,104294
1447095,61875,104285
1447157,61891,104294
1447201,61866,104279
1447254,61874,104308
1447317,61889,104306
1447360,61851,104302
1447414,61852,104290
1447467,61843,104297
1447520,61874,104279
1447573,61836,104284
1447626,61885,104314
1447679,61912,104319
1447732,61907,104303
1447785,61856,104278
1447839,61853,104290
1447892,61863,104286
1447945,61869,104283
1447998,61854,104270
1448051,61839,104292
1448104,61851,104255
1448157,61844,104274
1448210,61845,104277
1448264,61847,104264
1448318,61833,104247
1448370,61841,104271
1448423,61842,104249
1448477,61841,104293
1448529,61850,104274
1448582,61830,104263
1448637,61828,104257
1448689,61837,104256
1448742,61823,104257
1448798,61828,104253
1448848,61826,104248
1448901,61825,104258
1448958,61838,104259
1449007,61831,104235
1449060,61837,104264
1449117,61842,104264
1449167,61842,104250
1449220,61833,104250
1449278,61837,104240
1449326,61821,104235
1449379,61820,104228
1449438,61824,104233
1449485,61844,104233
1449539,61814,104234
1449597,61834,104243
1449645,61823,104235
1449698,61828,104227
1449758,61836,104229
1449804,61825,104238
1449857,61816,104228
1449918,61829,104247
1449964,61831,104221
1450017,61782,104221
1450079,61780,104212
1450123,61827,104218
1450176,61776,104226
1450239,61791,104221
1450282,61786,104210
1450335,61804,104225
1450398,61823,104218
1450442,61785,104244
1450495,61821,104201
1450559,61776,104205
1450601,61790,104199
1450654,61763,104197
1450707,61777,104190
1450760,61767,104185
1450814,61771,104227
1450867,61759,104187
1450920,61756,104178
1450973,61761,104159
1451026,61772,104198
1451079,61755,104192
1451132,61753,104186
1451185,61772,104170
1451239,61755,104167
1451292,61756,104183
1451345,61754,104155
1451399,61741,104140
1451451,61748,104164
1451504,61745,104174
1451559,61743,104195
1451610,61735,104177
1451664,61746,104177
1451718,61754,104173
1451770,61757,104180
1451823,61762,104165
1451879,61750,104170
1451929,61752,104162
1451982,61745,104141
1452039,61733,104149
1452089,61738,104155
1452142,61723,104140
1452198,61734,104150
1452248,61753,104153
1452301,61742,104148
1452358,61739,104157
1452407,61733,104157
1452460,61755,104143
1452519,61745,104140
1452567,61762,104150
1452620,61720,104121
1452678,61717,104114
1452726,61743,104131
1452779,61707,104098
1452838,61720,104121
1452885,61719,104122
1452939,61710,104111
1452999,61725,104131
1453045,61742,104114
1453098,61704,104139
1453160,61701,104120
1453204,61737,104121
1453257,61666,104119
1453320,61675,104103
1453364,61669,104089
1453417,61679,104092
1453479,61698,104091
1453523,61662,104094
1453576,61692,104091
1453640,61669,104088
1453682,61667,104093
1453735,61661,104082
1453789,61675,104091
1453842,61692,104091
1453895,61691,104065
1453948,61671,104078
1454001,61650,104075
1454054,61657,104069
1454107,61644,104057
1454160,61633,104053
1454214,61644,104038
1454267,61643,104058
1454320,61653,104066
1454373,61633,104076
1454426,61664,104058
1454480,61634,104053
1454532,61647,104063
1454585,61646,104052
1454640,61635,104039
1454692,61639,104051
1454745,61627,104017
1454799,61626,104042
1454851,61626,104030
1454904,61603,104024
1454959,61621,104036
1455010,61628,104043
1455064,61613,104032
1455120,61606,104039
1455170,61608,104030
1455223,61601,104033
1455279,61620,104026
1455329,61608,103987
1455382,61606,104013
1455439,61603,104010
1455489,61598,103994
1455542,61586,103984
1455600,61589,104000
1455648,61593,104007
1455701,61604,103998
1455759,61576,103978
1455807,61589,103996
1455860,61599,103997
1455919,61596,104006
1455967,61593,103995
1456020,61586,103976
1456080,61571,103985
1456126,61575,103962
1456179,61572,103958
1456240,61559,103951
1456285,61581,103967
1456339,61552,103954
1456399,61571,103955
1456445,61559,103966
1456498,61562,103943
1456560,61564,103945
1456604,61560,103953
1456657,61555,103935
1456720,61551,103946
1456764,61523,103968
1456817,61554,103943
1456881,61517,103926
1456923,61548,103926
1456976,61503,103929
1457029,61527,103943
1457082,61557,103936
1457135,61549,103923
1457189,61484,103922
1457242,61497,103925
1457295,61502,103915
1457348,61503,103913
1457401,61513,103895
1457454,61479,103892
1457507,61487,103891
1457560,61510,103892
1457614,61497,103896
1457667,61482,103880
1457721,61469,103865
1457773,61478,103885
1457826,61488,103884
1457880,61476,103882
1457932,61456,103866
1457985,61462,103878
1458040,61472,103869
1458092,61464,103872
1458145,61446,103840
1458201,61434,103851
1458251,61452,103851
1458304,61458,103846
1458361,61445,103858
1458410,61451,103867
1458464,61442,103866
1458520,61453,103860
1458570,61454,103857
1458623,61446,103868
1458681,61449,103868
1458729,61461,103884
1458782,61461,103836
1458841,61412,103835
1458889,61433,103840
1458942,61430,103838
1459000,61426,103833
1459048,61425,103845
1459101,61439,103828
1459161,61414,103851
1459207,61423,103826
1459260,61425,103830
1459321,61418,103829
1459367,61427,103820
1459420,61400,103820
1459480,61403,103804
1459526,61406,103812
1459579,61374,103798
1459640,61400,103804
1459685,61394,103789
1459739,61410,103792
1459801,61398,103772
1459845,61412,103817
1459898,61380,103793
1459962,61386,103803
1460004,61408,103806
1460057,61363,103798
1460110,61372,103797
1460164,61382,103793
1460217,61388,103792
1460270,61350,103785
1460323,61336,103794
1460376,61377,103797
1460429,61339,103785
1460482,61340,103778
1460535,61345,103775
1460589,61350,103790
1460642,61355,103789
1460695,61359,103804
1460748,61359,103770
1460802,61309,103758
1460854,61321,103761
1460907,61330,103764
1460962,61306,103747
1461014,61312,103767
1461067,61311,103758
1461121,61320,103775
1461173,61321,103770
1461226,61302,103767
1461282,61301,103765
1461332,61313,103755
1461385,61297,103746
1461442,61283,103749
1461492,61287,103751
1461545,61276,103722
1461601,61277,103727
1461651,61281,103734
1461704,61283,103754
1461761,61281,103745
1461810,61286,103753
1461864,61263,103748
1461922,61253,103734
1461970,61254,103752
1462023,61262,103737
1462081,61250,103723
1462129,61221,103722
1462182,61247,103732
1462241,61256,103735
1462289,61238,103725
1462342,61262,103714
1462402,61233,103716
1462448,61228,103695
1462501,61245,103731
1462561,61251,103708
1462607,61231,103710
1462660,61215,103712
1462721,61226,103715
1462767,61210,103691
1462820,61203,103697
1462882,61206,103706
1462926,61196,103678
1462979,61199,103689
1463042,61211,103687
1463085,61216,103712
1463139,61201,103674
1463201,61192,103680
1463245,61219,103687
1463298,61208,103686
1463351,61156,103653
1463404,61146,103663
1463457,61183,103698
1463510,61140,103676
1463564,61139,103680
1463617,61141,103659
1463670,61158,103691
1463723,61168,103673
1463776,61143,103669
1463829,61142,103681
1463882,61160,103671
1463935,61161,103666
1463989,61133,103644
1464043,61122,103648
1464095,61127,103667
1464148,61136,103662
1464202,61146,103673
1464254,61125,103666
1464307,61138,103668
1464362,61125,103665
1464414,61129,103657
1464467,61125,103662
1464523,61107,103647
1464573,61099,103633
1464626,61106,103639
1464682,61106,103642
1464732,61091,103646
1464785,61091,103628
1464842,61105,103634
1464892,61102,103637
1464945,61102,103651
1465003,61088,103645
1465051,61088,103660
1465104,61114,103648
1465163,61071,103633
1465210,61065,103619
1465264,61068,103631
1465322,61075,103629
1465370,61064,103625
1465423,61077,103624
1465483,61066,103631
1465529,61070,103621
1465582,61066,103621
1465643,61049,103619
1465689,61054,103613
1465742,61059,103624
1465802,61053,103613
1465848,61036,103601
1465901,61031,103594
1465963,61045,103592
1466007,61021,103561
1466060,61032,103586
1466123,61033,103574
1466167,61045,103619
1466220,61036,103574
1466282,61026,103574
1466326,61036,103590
1466379,61008,103593
1466432,61019,103592
1466485,61032,103580
1466539,61025,103580
1466592,60974,103582
1466645,60968,103565
1466698,60959,103571
1466751,60967,103572
1466804,60997,103567
1466857,60962,103555
1466910,60953,103562
1466964,60971,103564
1467017,60970,103570
1467070,60980,103562
1467124,60946,103545
1467176,60962,103565
1467229,60946,103542
1467284,60922,103531
1467335,60929,103537
1467389,60935,103542
1467443,60939,103537
1467495,60943,103543
1467548,60920,103533
1467604,60931,103543
1467654,60945,103531
1467707,60931,103534
1467764,60931,103542
1467814,60936,103538
1467867,60912,103540
1467923,60922,103522
1467973,60922,103510
1468026,60903,103515
1468084,60886,103524
1468132,60903,103531
1468185,60923,103511
1468244,60883,103522
1468292,60905,103514
1468345,60882,103509
1468403,60885,103504
1468451,60886,103508
1468504,60893,103507
1468563,60885,103521
1468610,60877,103501
1468664,60855,103471
1468724,60839,103467
1468770,60860,103473
1468823,60822,103462
1468883,60856,103478
1468929,60884,103500
1468982,60807,103446
1469043,60829,103461
1469089,60836,103444
1469142,60842,103477
1469204,60856,103477
1469248,60828,103470
1469301,60795,103477
1469365,60803,103468
1469407,60830,103460
1469460,60795,103464
1469514,60819,103472
1469567,60830,103456
1469620,60835,103458
1469673,60812,103450
1469726,60803,103467
1469779,60823,103479
1469832,60793,103446
1469885,60778,103452
1469939,60795,103446
1469992,60788,103454
1470045,60792,103457
1470098,60780,103469
1470151,60803,103445
1470205,60756,103442
1470257,60783,103453
1470310,60782,103449
1470365,60759,103415
1470417,60776,103447
1470470,60773,103425
1470524,60773,103454
1470576,60762,103443
1470629,60741,103424
1470684,60744,103427
1470735,60745,103421
1470789,60729,103435
1470845,60730,103431
1470895,60739,103433
1470948,60735,103433
1471004,60753,103431
1471054,60746,103421
1471107,60750,103441
1471164,60744,103441
1471214,60756,103473
1471267,60745,103418
1471325,60740,103403
1471373,60722,103408
1471426,60717,103420
1471484,60737,103419
1471532,60739,103431
1471585,60713,103407
1471644,60732,103419
1471692,60718,103415
1471745,60722,103404
1471805,60743,103418
1471851,60734,103435
1471904,60708,103387
1471965,60725,103416
1472010,60724,103421
1472064,60652,103416
1472126,60684,103411
1472170,60676,103397
1472223,60668,103410
1472285,60702,103405
1472329,60682,103393
1472382,60671,103410
1472445,60693,103393
1472489,60677,103402
1472542,60673,103407
1472595,60671,103403
1472648,60687,103395
1472701,60657,103397
1472754,60666,103379
1472807,60655,103379
1472860,60658,103376
1472914,60650,103386
1472967,60646,103365
1473020,60639,103372
1473073,60677,103387
1473126,60660,103376
1473179,60651,103409
1473232,60675,103383
1473285,60654,103387
1473339,60657,103389
1473392,60633,103371
1473446,60625,103365
1473498,60625,103376
1473551,60636,103372
1473605,60628,103395
1473657,60623,103378
1473710,60637,103389
1473765,60635,103382
1473817,60636,103376
1473870,60641,103365
1473926,60640,103387
1473976,60634,103379
1474029,60626,103375
1474086,60635,103386
1474135,60634,103352
1474189,60607,103359
1474245,60614,103365
1474295,60611,103357
1474348,60597,103351
1474406,60619,103365
1474454,60618,103366
1474507,60612,103342
1474566,60605,103334
1474614,60621,103366
1474667,60593,103343
1474725,60611,103342
1474773,60588,103359
1474826,60584,103349
1474886,60602,103360
1474932,60558,103336
1474985,60572,103349
1475046,60587,103360
1475092,60589,103344
1475145,60577,103330
1475207,60566,103335
1475251,60585,103334
1475304,60561,103317
1475367,60549,103339
1475410,60561,103323
1475464,60560,103331
1475526,60569,103328
1475570,60540,103339
1475623,60566,103312
1475687,60521,103310
1475729,60543,103317
1475782,60539,103321
1475835,60550,103314
1475889,60555,103318
1475942,60557,103327
1475995,60535,103318
1476048,60552,103315
1476101,60564,103313
1476154,60549,103333
1476207,60540,103323
1476260,60538,103325
1476314,60544,103318
1476367,60540,103311
1476420,60540,103312
1476473,60529,103303
1476527,60530,103308
1476579,60539,103313
1476632,60542,103303
1476687,60533,103339
1476739,60537,103306
1476792,60544,103317
1476846,60539,103316
1476898,60538,103309
1476951,60527,103291
1477007,60521,103281
1477057,60517,103285
1477110,60509,103283
1477167,60523,103295
1477217,60518,103290
1477270,60511,103288
1477326,60523,103283
1477376,60533,103260
1477429,60505,103269
1477486,60521,103280
1477535,60504,103290
1477588,60502,103251
1477647,60514,103249
1477695,60519,103266
1477748,60458,103266
1477808,60460,103257
1477854,60511,103264
1477907,60452,103261
1477968,60462,103257
1478013,60463,103250
1478067,60452,103255
1478127,60491,103264
1478173,60491,103236
1478226,60475,103250
1478288,60462,103264
1478332,60489,103246
1478385,60450,103231
1478448,60441,103223
1478492,60448,103220
1478545,60474,103236
1478607,60470,103227
1478651,60454,103267
1478704,60482,103234
1478767,60457,103240
1478810,60444,103239
1478863,60453,103238
1478917,60453,103228
1478970,60454,103236
1479023,60447,103226
1479076,60441,103217
1479129,60432,103221
1479182,60447,103216
1479235,60425,103212
1479288,60448,103221
1479342,60445,103212
1479395,60442,103220
1479448,60441,103229
1479501,60441,103234
1479554,60456,103224
1479607,60441,103213
1479660,60438,103211
1479713,60428,103204
1479768,60406,103177
1479820,60405,103196
1479873,60423,103208
1479927,60411,103188
1479979,60395,103201
1480032,60414,103195
1480087,60410,103194
1480138,60399,103177
1480192,60416,103187
1480248,60411,103190
1480298,60411,103185
1480351,60392,103185
1480407,60396,103164
1480457,60414,103164
1480510,60402,103158
1480567,60388,103172
1480617,60385,103196
1480670,60423,103178
1480728,60424,103160
1480776,60390,103167
1480829,60382,103150
1480888,60410,103169
1480935,60408,103171
1480988,60376,103187
1481049,60367,103161
1481095,60347,103159
1481148,60357,103160
1481208,60383,103160
1481254,60356,103152
1481307,60365,103150
1481368,60386,103167
1481413,60386,103175
1481467,60347,103140
1481529,60368,103159
1481573,60373,103155
1481626,60377,103157
1481688,60378,103170
1481732,60360,103156
1481785,60365,103169
1481848,60382,103160
1481892,60350,103151
1481945,60345,103155
1481998,60354,103158
1482051,60364,103158
1482104,60358,103144
1482157,60353,103135
1482210,60349,103146
1482263,60358,103149
1482317,60347,103155
1482370,60355,103145
1482423,60344,103143
1482476,60342,103140
1482529,60325,103125
1482582,60319,103159
1482635,60351,103143
1482688,60336,103148
1482742,60337,103150
1482795,60332,103137
1482849,60310,103129
1482901,60322,103127
1482954,60320,103114
1483009,60321,103149
1483060,60299,103120
1483113,60304,103124
1483168,60314,103126
1483220,60320,103131
1483273,60301,103113
1483329,60302,103125
1483379,60310,103131
1483432,60291,103120
1483489,60322,103133
1483538,60305,103081
1483592,60275,103097
1483648,60292,103105
1483698,60273,103100
1483751,60261,103096
1483809,60310,103130
1483857,60276,103110
1483910,60253,103114
1483969,60289,103128
1484017,60306,103117
1484070,60263,103115
1484130,60272,103120
1484176,60281,103115
1484229,60255,103100
1484290,60245,103102
1484335,60248,103092
1484388,60259,103098
1484449,60256,103091
1484495,60265,103103
1484548,60266,103098
1484610,60238,103094
1484654,60247,103101
1484707,60231,103097
1484770,60234,103096
1484813,60227,103080
1484867,60233,103097
1484929,60241,103091
1484973,60217,103096
1485026,60237,103083
1485090,60208,103065
1485132,60216,103079
1485185,60202,103080
1485238,60220,103085
1485292,60215,103086
1485345,60210,103085
1485398,60204,103083
1485451,60209,103085
1485504,60212,103078
1485557,60222,103094
1485610,60210,103076
1485663,60206,103095
1485717,60217,103101
1485770,60200,103086
1485823,60201,103085
1485876,60196,103068
1485930,60185,103050
1485982,60189,103075
1486035,60195,103072
1486090,60189,103087
1486142,60188,103072
1486195,60184,103070
1486249,60190,103095
1486301,60245,103117
1486354,60240,103105
1486409,60217,103097
1486460,60221,103110
1486513,60198,103066
1486570,60201,103051
1486620,60201,103068
1486673,60158,103052
1486731,60151,103060
1486779,60189,103056
1486832,60137,103068
1486891,60142,103074
1486938,60137,103074
1486992,60155,103077
1487050,60166,103084
1487098,60181,103077
1487151,60140,103051
1487211,60115,103066
1487257,60151,103070
1487310,60144,103046
1487371,60103,103041
1487417,60107,103046
1487470,60122,103055
1487530,60137,103061
1487576,60119,103054
1487629,60135,103052
1487690,60122,103044
1487735,60123,103066
1487788,60129,103070
1487851,60120,103044
1487895,60111,103046
1487948,60116,103038
1488010,60108,103044
1488054,60107,103066
1488107,60127,103028
1488170,60099,103045
1488213,60090,103054
1488267,60098,103054
1488320,60107,103052
1488373,60092,103050
1488426,60088,103058
1488479,60082,103062
1488532,60087,103059
1488585,60090,103061
1488638,60076,103049
1488692,60078,103045
1488745,60075,103030
1488798,60063,103046
1488851,60081,103037
1488904,60071,103051
1488957,60081,103053
1489010,60087,103028
1489063,60086,103060
1489117,60088,103057
1489171,60096,103059
1489223,60098,103068
1489276,60091,103068
1489330,60092,103056
1489382,60099,103058
1489435,60089,103054
1489490,60089,103055
1489542,60084,103055
1489595,60082,103059
1489651,60104,103062
1489701,60084,103080
1489754,60071,103067
1489811,60112,103072
1489860,60102,103055
1489913,60063,103072
1489972,60041,103065
1490020,60043,103081
1490073,60080,103058
1490131,60067,103055
1490179,60043,103052
1490232,60069,103071
1490291,60067,103044
1490338,60048,103043
1490392,60062,103054
1490452,60053,103077
1490498,60060,103062
1490551,60017,103035
1490611,60021,103036
1490657,60008,103032
1490710,60020,103038
1490771,60029,103046
1490817,60032,103046
1490870,60017,103041
1490932,60006,103021
1490976,60019,103017
1491029,60017,103020
1491092,60004,103009
1491135,60005,103020
1491188,60011,103031
1491251,60008,103025
1491295,59995,103020
1491348,59992,103020
1491401,60000,103033
1491454,59993,103006
1491507,59966,102997
1491560,59994,103024
1491613,59999,103029
1491667,59987,103017
1491720,59971,102990
1491773,59959,103010
1491826,59983,103003
1491879,59970,102992
1491932,59952,102981
1491985,59958,103022
1492038,59991,103007
1492092,59975,102995
1492145,59948,102980
1492198,59948,102997
1492252,59981,102986
1492304,59950,102992
1492357,59939,102977
1492412,59963,102987
1492463,59956,102986
1492517,59924,102960
1492571,59929,102970
1492623,59919,102974
1492676,59921,102978
1492732,59943,102970
1492782,59902,102975
1492835,59906,102994
1492892,59935,102977
1492942,59922,102946
1492995,59931,102985
1493053,59903,102960
1493101,59913,102971
1493154,59927,102972
1493213,59892,102957
1493260,59867,102963
1493313,59928,102975
1493372,59906,102959
1493420,59882,102949
1493473,59902,102971
1493533,59893,102966
1493579,59889,102960
1493632,59891,102965
1493693,59855,102946
1493738,59854,102965
1493792,59896,102975
1493852,59894,102966
1493898,59877,102965
1493951,59843,102950
1494013,59857,102936
1494057,59879,102961
1494110,59857,102944
1494173,59849,102948
1494217,59852,102937
1494270,59839,102947
1494332,59863,102956
1494376,59855,102967
1494429,59847,102947
1494482,59841,102958
1494535,59852,102951
1494588,59851,102945
1494642,59837,102943
1494695,59835,102942
1494748,59842,102943
1494801,59822,102916
1494854,59823,102935
1494907,59836,102925
1494960,59836,102930
1495013,59823,102916
1495067,59838,102949
1495120,59822,102936
1495173,59821,102924
1495226,59838,102938
1495279,59837,102942
1495332,59830,102925
1495385,59818,102940
1495438,59832,102933
1495493,59839,102958
1495545,59845,102946
1495598,59829,102927
1495652,59822,102931
1495704,59847,102961
1495757,59841,102927
1495814,59824,102945
1495863,59815,102969
1495917,59831,102987
1495973,59874,102970
1496023,59868,102980
1496076,59827,102999
1496134,59830,102983
1496182,59858,102967
1496235,59828,102975
1496294,59822,102988
1496342,59818,102984
1496395,59847,102991
1496453,59841,102987
1496501,59816,102977
1496554,59835,102984
1496613,59846,102980
1496660,59847,102988
1496713,59836,102987
1496774,59820,102985
1496820,59818,102978
1496873,59814,102984
1496933,59825,102970
1496979,59801,102953
1497032,59819,102971
1497093,59809,102968
1497138,59818,102977
1497192,59813,102971
1497254,59813,102970
1497298,59817,102964
1497351,59818,102984
1497413,59817,102986
1497457,59809,103010
1497510,59829,102987
1497573,59809,102989
1497617,59804,102976
1497670,59790,102969
1497723,59798,102984
1497776,59805,102979
1497829,59799,102979
1497882,59784,102977
1497935,59805,102978
1497988,59804,102975
1498042,59796,102972
1498095,59799,102976
1498148,59805,102956
1498201,59773,102967
1498254,59789,102978
1498307,59795,102972
1498360,59769,102965
1498413,59774,102943
1498467,59780,102964
1498520,59775,102953
1498574,59792,102948
1498626,59775,102960
1498679,59775,102944
1498734,59791,102957
1498785,59790,102961
1498838,59755,102949
1498893,59759,102952
1498945,59767,102950
1498998,59750,102940
1499054,59773,102945
1499104,59736,102949
1499157,59729,102969
1499214,59774,102966
1499263,59774,102945
1499317,59757,102971
1499375,59745,102971
1499423,59745,102988
1499476,59788,102970
1499534,59765,102971
1499582,59740,102958
1499635,59746,102955
1499694,59763,102960
1499742,59756,102951
1499795,59750,102957
1499855,59729,102966
1499901,59749,102963
1499954,59746,102963
1500015,59741,102962
1500060,59739,102964
1500113,59762,102970
1500174,59749,102973
1500220,59751,102980
1500273,59726,102956
1500335,59741,102939
1500379,59744,102944
1500432,59731,102960
1500495,59723,102956
1500538,59716,102962
1500592,59720,102978
1500654,59726,102964
1500698,59716,102971
1500751,59734,102972
1500804,59720,102973
1500857,59727,102974
1500910,59737,102967
1500963,59748,102986
1501017,59730,102981
1501070,59719,102960
1501123,59720,102959
1501176,59711,102955
1501229,59707,102939
1501282,59682,102916
1501335,59669,102926
1501388,59692,102969
1501442,59725,102956
1501495,59708,102963
1501548,59713,102971
1501601,59717,102965
1501655,59735,102953
1501707,59707,102972
1501760,59686,102939
1501815,59709,102962
1501867,59721,102965
1501920,59672,102958
1501976,59660,102935
1502026,59705,102955
1502079,59688,102981
1502136,59699,102980
1502185,59701,102976
1502238,59696,103000
1502295,59755,103007
1502345,59763,102989
1502398,59731,103010
1502456,59718,103008
1502504,59744,103003
1502557,59735,102998
1502616,59718,103006
1502663,59699,103002
1502717,59737,103010
1502775,59739,103009
1502823,59726,102984
1502876,59699,103001
1502936,59710,103011
1502982,59721,102995
1503035,59703,103004
1503096,59710,103016
1503142,59715,102991
1503195,59679,102959
1503255,59682,102983
1503301,59708,103007
1503354,59694,102985
1503416,59707,103011
1503460,59719,103010
1503513,59668,102997
1503576,59694,103007
1503620,59704,102994
1503673,59701,103012
1503735,59705,103011
1503779,59689,103032
1503832,59708,103010
1503885,59694,102992
1503938,59677,102987
1503992,59669,102976
1504045,59692,103000
1504098,59690,102984
1504151,59681,102980
1504204,59688,102997
1504257,59709,102999
1504310,59694,102975
1504363,59678,102980
1504417,59701,102970
1504470,59726,103031
1504523,59710,103004
1504576,59689,102971
1504629,59688,102981
1504682,59676,102985
1504735,59709,102986
1504788,59712,103007
1504842,59667,102965
1504896,59691,103002
1504948,59701,102989
1505001,59685,103016
1505057,59671,102998
1505107,59708,102996
1505160,59654,102998
1505217,59646,102993
1505267,59650,102997
1505320,59657,102989
1505376,59678,102976
1505426,59644,102977
1505479,59658,102975
1505537,59640,102980
1505585,59673,102966
1505638,59671,102983
1505697,59650,102997
1505745,59651,103000
1505798,59674,102990
1505856,59652,102983
1505904,59651,102992
1505957,59654,102980
1506016,59655,102982
1506063,59657,102982
1506117,59666,102992
1506177,59647,102983
1506223,59656,102978
1506276,59641,102974
1506336,59662,102966
1506382,59654,102966
1506435,59659,102971
1506496,59660,102991
1506542,59655,102994
1506595,59645,102985
1506657,59645,102978
1506701,59656,102960
1506754,59648,102983
1506816,59648,102993
1506860,59643,103013
1506913,59688,102991
1506976,59649,102968
1507020,59646,102974
1507073,59656,102997
1507126,59644,102976
1507179,59642,102968
1507232,59656,102999
1507285,59637,102981
1507338,59647,102986
1507392,59646,102971
1507445,59653,102981
1507498,59660,102982
1507551,59643,102953
1507604,59632,102971
1507657,59648,102974
1507710,59667,102975
1507763,59643,102962
1507817,59653,102955
1507870,59654,102990
1507923,59640,102944
1507977,59660,102957
1508029,59608,102969
1508082,59625,102980
1508137,59682,102978
1508188,59676,102983
1508242,59597,102948
1508298,59585,102961
1508348,59611,102964
1508401,59636,102952
1508457,59591,102887
1508507,59509,102882
1508560,59576,102936
1508617,59597,102927
1508667,59597,102906
1508720,59563,102898
1508778,59554,102920
1508826,59582,102951
1508879,59601,102919
1508937,59566,102909
1508985,59545,102906
1509038,59553,102905
1509097,59573,102918
1509145,59574,102919
1509198,59554,102915
1509258,59559,102904
1509304,59575,102916
1509357,59564,102910
1509418,59576,102908
1509463,59575,102919
1509517,59557,102918
1509577,59555,102919
1509623,59559,102910
1509676,59544,102927
1509738,59576,102922
1509782,59572,102886
1509835,59559,102924
1509898,59565,102915
1509942,59554,102920
1509995,59554,102910
1510057,59570,102913
1510101,59571,102917
1510154,59556,102910
1510207,59560,102893
1510260,59567,102898
1510313,59565,102896
1510367,59545,102896
1510420,59547,102908
1510473,59554,102903
1510526,59552,102890
1510579,59567,102891
1510632,59541,102873
1510685,59549,102874
1510738,59567,102894
1510792,59562,102911
1510845,59553,102885
1510899,59532,102888
1510951,59527,102891
1511004,59528,102899
1511058,59556,102878
1511110,59520,102900
1511163,59534,102892
1511218,59553,102891
1511270,59547,102875
1511323,59522,102873
1511379,59522,102868
1511429,59546,102874
1511482,59537,102866
1511539,59512,102866
1511588,59514,102874
1511642,59521,102873
1511698,59549,102865
1511748,59549,102869
1511801,59546,102881
1511859,59529,102879
1511907,59545,102889
1511960,59553,102879
1512019,59538,102885
1512067,59541,102885
1512120,59548,102875
1512178,59553,102872
1512226,59554,102899
1512279,59565,102889
1512339,59562,102889
1512385,59550,102889
1512438,59559,102900
1512499,59561,102898
1512545,59546,102890
1512598,59548,102893
1512658,59552,102894
1512704,59552,102891
1512757,59551,102906
1512818,59554,102893
1512863,59538,102872
1512917,59553,102876
1512979,59554,102884
1513023,59557,102878
1513076,59562,102895
1513138,59565,102875
1513182,59549,102881
1513235,59543,102861
1513288,59566,102881
1513342,59567,102874
1513395,59567,102874
1513448,59532,102879
1513501,59557,102867
1513554,59565,102860
1513607,59535,102867
1513660,59558,102870
1513713,59561,102853
1513767,59558,102862
1513820,59580,102846
1513873,59575,102865
1513926,59542,102843
1513979,59555,102848
1514032,59576,102862
1514085,59548,102845
1514138,59566,102839
1514192,59559,102865
1514245,59556,102857
1514299,59589,102889
1514351,59588,102870
1514404,59554,102884
1514460,59544,102862
1514510,59588,102867
1514563,59559,102887
1514620,59545,102868
1514670,59533,102850
1514723,59558,102884
1514779,59594,102879
1514829,59550,102879
1514882,59559,102889
1514939,59599,102894
1514988,59600,102874
1515042,59578,102878
1515100,59563,102891
1515148,59558,102908
1515201,59592,102868
1515259,59584,102876
1515307,59559,102882
1515360,59570,102869
1515419,59575,102871
1515467,59586,102890
1515520,59577,102875
1515580,59564,102871
1515626,59573,102874
1515679,59570,102869
1515739,59570,102878
1515785,59556,102862
1515838,59541,102846
1515899,59544,102841
1515945,59531,102843
1515998,59548,102852
1516060,59552,102821
1516104,59544,102821
1516157,59559,102840
1516220,59549,102859
1516263,59550,102851
1516317,59559,102881
1516379,59568,102865
1516423,59567,102871
1516476,59573,102882
1516529,59588,102886
1516582,59585,102871
1516635,59570,102864
1516688,59582,102885
1516742,59591,102890
1516795,59586,102882
1516848,59583,102870
1516901,59584,102876
1516954,59596,102880
1517007,59604,102892
1517060,59605,102891
1517113,59604,102915
1517167,59616,102883
1517220,59591,102895
1517273,59596,102891
1517326,59597,102884
1517380,59607,102869
1517432,59588,102888
1517485,59602,102879
1517540,59613,102901
1517592,59620,102900
1517645,59594,102869
1517699,59604,102888
1517751,59605,102897
1517804,59599,102891
1517860,59622,102882
1517910,59584,102884
1517963,59559,102891
1518020,59622,102894
1518070,59625,102867
1518123,59585,102893
1518181,59573,102883
1518229,59616,102878
1518282,59591,102883
1518341,59570,102869
1518388,59570,102881
1518442,59603,102880
1518500,59593,102879
1518548,59598,102868
1518601,59581,102847
1518661,59583,102877
1518707,59604,102885
1518760,59587,102856
1518821,59561,102857
1518867,59570,102858
1518920,59598,102868
1518980,59584,102866
1519026,59574,102850
1519079,59583,102865
1519141,59564,102856
1519185,59573,102859
1519238,59572,102852
1519301,59553,102844
1519345,59546,102838
1519398,59571,102849
1519460,59570,102849
1519504,59564,102868
1519557,59588,102818
1519620,59567,102842
1519663,59568,102846
1519717,59566,102839
1519770,59566,102846
1519823,59571,102849
1519876,59567,102846
1519929,59520,102835
1519982,59541,102848
1520035,59557,102836
1520088,59539,102833
1520142,59542,102833
1520195,59541,102825
1520248,59548,102836
1520301,59548,102836
1520354,59542,102834
1520407,59550,102834
1520460,59553,102806
1520513,59555,102832
1520567,59545,102818
1520621,59539,102824
1520673,59538,102826
1520726,59535,102828
1520780,59524,102813
1520832,59537,102833
1520885,59512,102823
1520940,59531,102821
1520992,59525,102810
1521045,59532,102812
1521101,59540,102818
1521151,59549,102824
1521204,59517,102807
1521260,59523,102803
1521310,59539,102800
1521363,59530,102808
1521420,59519,102801
1521470,59508,102834
1521523,59539,102803
1521581,59539,102808
1521629,59512,102816
1521682,59501,102796
1521741,59532,102814
1521788,59541,102812
1521842,59489,102804
1521902,59498,102817
1521948,59479,102813
1522001,59488,102825
1522061,59508,102833
1522107,59473,102810
1522160,59489,102813
1522221,59512,102828
1522267,59514,102830
1522320,59471,102806
1522382,59481,102807
1522426,59476,102807
1522479,59484,102812
1522541,59499,102792
1522585,59465,102792
1522638,59483,102811
1522701,59496,102805
1522745,59468,102806
1522798,59461,102809
1522851,59487,102801
1522904,59494,102812
1522957,59469,102807
1523010,59467,102802
1523063,59481,102803
1523117,59481,102810
1523170,59464,102808
1523223,59454,102797
1523276,59468,102783
1523329,59474,102808
1523382,59460,102782
1523435,59454,102804
1523488,59472,102786
1523542,59472,102787
1523595,59464,102798
1523648,59465,102798
1523702,59464,102776
1523754,59466,102808
1523807,59451,102795
1523862,59451,102824
1523913,59449,102804
1523967,59447,102806
1524021,59451,102800
1524073,59441,102785
1524126,59452,102795
1524182,59438,102802
1524232,59440,102793
1524285,59442,102785
1524342,59437,102793
1524392,59450,102797
1524445,59435,102801
1524501,59450,102808
1524551,59452,102807
1524604,59452,102809
1524662,59463,102823
1524710,59464,102840
1524763,59496,102837
1524822,59483,102837
1524870,59495,102843
1524923,59465,102839
1524981,59468,102838
1525029,59507,102855
1525082,59471,102834
1525141,59485,102843
1525188,59485,102844
1525242,59476,102830
1525302,59481,102825
1525348,59489,102828
1525401,59461,102857
1525463,59457,102840
1525507,59492,102838
1525560,59423,102850
1525623,59437,102836
1525667,59440,102822
1525720,59440,102847
1525782,59471,102839
1525826,59446,102877
1525879,59478,102830
1525943,59433,102839
1525985,59460,102835
1526038,59426,102829
1526092,59443,102837
1526145,59461,102840
1526198,59463,102830
1526251,59437,102817
1526304,59432,102828
1526357,59452,102835
1526410,59420,102811
1526463,59412,102822
1526516,59422,102817
1526570,59434,102818
1526623,59433,102830
1526676,59426,102842
1526729,59467,102828
1526783,59429,102825
1526835,59431,102825
1526888,59436,102836
1526943,59423,102817
1526995,59426,102829
1527048,59446,102822
1527102,59447,102844
1527154,59439,102832
1527207,59436,102815
1527262,59445,102834
1527313,59453,102844
1527366,59441,102839
1527423,59447,102855
1527473,59456,102851
1527526,59426,102854
1527582,59452,102837
1527632,59432,102812
1527685,59443,102844
1527742,59448,102837
1527791,59442,102829
1527845,59442,102839
1527903,59431,102836
1527951,59433,102823
1528004,59446,102833
1528062,59440,102829
1528110,59441,102823
1528163,59435,102830
1528222,59442,102831
1528270,59443,102825
1528323,59458,102818
1528383,59445,102840
1528429,59455,102811
1528482,59438,102805
1528543,59435,102812
1528588,59457,102813
1528641,59436,102814
1528702,59441,102820
1528748,59429,102802
1528801,59443,102800
1528863,59454,102819
1528907,59447,102785
1528960,59448,102799
1529023,59450,102804
1529066,59458,102832
1529120,59443,102770
1529182,59426,102780
1529226,59439,102797
1529279,59419,102799
1529332,59420,102780
1529385,59441,102780
1529438,59442,102790
1529491,59386,102804
1529545,59405,102790
1529598,59399,102797
1529651,59407,102800
1529704,59430,102779
1529757,59382,102760
1529810,59392,102788
1529863,59436,102792
1529916,59422,102784
1529970,59416,102786
1530024,59394,102777
1530076,59402,102788
1530129,59411,102799
1530183,59442,102796
1530235,59412,102804
1530288,59427,102807
1530343,59439,102817
1530395,59441,102818
1530448,59434,102810
1530504,59419,102815
1530554,59447,102812
1530607,59429,102808
1530664,59418,102806
1530713,59412,102797
1530766,59413,102814
1530823,59434,102801
1530873,59435,102795
1530926,59425,102806
1530984,59413,102808
1531032,59428,102830
1531085,59436,102821
1531144,59414,102823
1531191,59428,102830
1531245,59422,102817
1531303,59413,102809
1531351,59410,102812
1531404,59410,102808
1531464,59410,102796
1531510,59408,102817
1531563,59413,102806
1531624,59410,102805
1531670,59412,102812
1531723,59423,102813
1531783,59416,102820
1531829,59413,102827
1531882,59402,102819
1531943,59402,102816
1531988,59416,102825
1532041,59385,102810
1532104,59390,102813
1532148,59392,102816
1532201,59396,102826
1532263,59402,102827
1532307,59410,102842
1532360,59429,102835
1532423,59405,102825
1532466,59408,102825
1532520,59403,102820
1532573,59397,102829
1532626,59410,102828
1532679,59407,102821
1532732,59369,102820
1532785,59401,102827
1532838,59406,102810
1532891,59396,102808
1532945,59393,102800
1532998,59406,102820
1533051,59385,102819
1533104,59393,102816
1533157,59409,102829
1533210,59397,102823
1533263,59400,102788
1533316,59393,102821
1533370,59388,102813
1533424,59410,102834
1533476,59410,102830
1533529,59376,102831
1533585,59372,102820
1533635,59416,102826
1533688,59373,102836
1533745,59357,102833
1533795,59359,102819
1533848,59366,102842
1533904,59399,102830
1533954,59360,102823
1534007,59351,102822
1534064,59391,102832
1534113,59391,102811
1534166,59369,102801
1534225,59350,102827
1534273,59353,102838
1534326,59386,102822
1534384,59361,102825
1534432,59347,102825
1534485,59374,102823
1534544,59366,102823
1534591,59373,102824
1534645,59353,102825
1534705,59347,102827
1534751,59346,102813
1534804,59343,102816
1534864,59360,102816
1534910,59342,102811
1534963,59345,102805
1535024,59346,102806
1535070,59350,102810
1535123,59328,102817
1535185,59337,102813
1535229,59344,102810
1535282,59324,102817
1535345,59328,102816
1535388,59331,102838
1535441,59343,102824
1535504,59327,102832
1535548,59319,102819
1535601,59315,102809
1535654,59330,102825
1535707,59330,102809
1535760,59310,102814
1535813,59339,102840
1535866,59333,102831
1535920,59324,102824
1535973,59317,102808
1536026,59326,102828
1536079,59320,102815
1536132,59330,102813
1536185,59312,102819
1536238,59316,102847
1536291,59336,102815
1536345,59317,102830
1536398,59317,102815
1536451,59311,102812
1536505,59332,102807
1536557,59312,102825
1536610,59297,102800
1536665,59308,102816
1536716,59323,102811
1536770,59305,102807
1536824,59298,102794
1536876,59288,102806
1536929,59294,102798
1536985,59317,102797
1537035,59284,102807
1537088,59291,102818
1537145,59331,102823
1537195,59306,102782
1537248,59265,102810
1537306,59262,102807
1537354,59310,102806
1537407,59258,102799
1537466,59247,102798
1537513,59245,102798
1537566,59282,102805
1537625,59270,102796
1537673,59262,102786
1537726,59285,102798
1537786,59269,102800
1537832,59258,102784
1537885,59249,102769
1537946,59233,102787
1537991,59244,102772
1538045,59245,102782
1538105,59249,102781
1538151,59255,102776
1538204,59245,102796
1538266,59252,102806
1538310,59265,102801
1538363,59251,102797
1538426,59235,102791
1538470,59226,102784
1538523,59272,102797
1538585,59246,102787
1538629,59239,102801
1538682,59287,102797
1538745,59270,102801
1538788,59255,102798
1538841,59246,102796
1538895,59250,102804
1538948,59242,102805
1539001,59250,102800
1539054,59239,102804
1539107,59252,102800
1539160,59247,102767
1539213,59242,102776
1539266,59234,102774
1539320,59225,102762
1539373,59220,102783
1539426,59234,102772
1539479,59228,102777
1539532,59223,102775
1539585,59226,102760
1539638,59222,102774
1539691,59208,102763
1539746,59211,102780
1539798,59220,102761
1539851,59214,102763
1539905,59210,102754
1539957,59224,102763
1540010,59206,102738
1540065,59205,102752
1540116,59200,102753
1540170,59201,102745
1540226,59229,102749
1540276,59214,102751
1540329,59160,102744
1540387,59167,102743
1540435,59198,102734
1540488,59165,102743
1540547,59170,102758
1540595,59175,102763
1540648,59203,102740
1540706,59183,102751
1540754,59182,102757
1540807,59193,102740
1540866,59185,102743
1540913,59195,102751
1540966,59194,102761
1541027,59167,102742
1541073,59172,102737
1541126,59183,102748
1541186,59188,102754
1541232,59170,102731
1541285,59197,102752
1541346,59187,102757
1541391,59202,102755
1541445,59195,102755
1541507,59193,102753
1541551,59189,102751
1541604,59204,102753
1541666,59194,102769
1541710,59180,102789
1541763,59217,102770
1541826,59186,102764
1541870,59189,102767
1541923,59192,102780
1541976,59197,102778
1542029,59197,102769
1542082,59188,102775
1542135,59198,102787
1542188,59202,102794
1542241,59208,102782
1542295,59198,102769
1542348,59202,102769
1542401,59203,102767
1542454,59193,102783
1542507,59217,102796
1542560,59248,102805
1542613,59236,102802
1542666,59235,102775
1542720,59237,102806
1542773,59231,102805
1542827,59267,102797
1542879,59244,102819
1542932,59241,102792
1542987,59265,102799
1543038,59255,102799
1543091,59207,102810
1543148,59215,102793
1543198,59232,102805
1543251,59243,102821
1543307,59266,102813
1543357,59233,102812
1543410,59233,102831
1543467,59268,102812
1543516,59263,102806
1543570,59249,102816
1543628,59230,102820
1543676,59224,102840
1543729,59261,102799
1543787,59234,102806
1543835,59224,102806
1543888,59250,102817
1543947,59254,102823
1543995,59255,102820
1544048,59242,102820
1544108,59228,102813
1544154,59250,102823
1544207,59251,102837
1544268,59256,102829
1544313,59236,102814
1544366,59238,102798
1544427,59246,102799
1544473,59254,102819
1544526,59223,102807
1544588,59235,102805
1544632,59257,102803
1544685,59241,102817
1544748,59233,102819
1544791,59240,102826
1544845,59236,102833
1544907,59251,102833
1544951,59261,102847
1545004,59266,102831
1545057,59278,102841
1545110,59260,102810
1545163,59234,102803
1545216,59255,102832
1545270,59260,102837
1545323,59266,102835
1545376,59301,102842
1545429,59299,102834
1545482,59276,102823
1545535,59316,102853
1545588,59309,102848
1545641,59302,102874
1545695,59330,102854
1545748,59300,102842
1545801,59286,102849
1545854,59293,102836
1545908,59320,102816
1545960,59288,102838
1546013,59289,102845
1546068,59333,102853
1546120,59328,102854
1546173,59287,102871
1546229,59303,102870
1546279,59344,102866
1546332,59310,102861
1546389,59313,102877
1546438,59313,102879
1546491,59305,102864
1546548,59325,102852
1546598,59325,102852
1546651,59323,102847
1546709,59292,102853
1546757,59310,102869
1546810,59324,102856
1546869,59301,102867
1546916,59310,102863
1546970,59325,102867
1547028,59319,102852
1547076,59319,102866
1547129,59323,102860
1547189,59313,102837
1547235,59317,102856
1547288,59316,102830
1547349,59306,102847
1547395,59299,102848
1547448,59315,102860
1547508,59319,102857
1547554,59303,102863
1547607,59294,102860
1547668,59316,102866
1547713,59326,102863
1547766,59310,102851
1547829,59306,102857
1547873,59298,102847
1547926,59287,102849
1547988,59314,102839
1548032,59311,102857
1548085,59310,102844
1548138,59299,102835
1548191,59310,102830
1548245,59311,102827
1548298,59299,102837
1548351,59301,102816
1548404,59319,102828
1548457,59274,102812
1548510,59288,102813
1548563,59284,102798
1548616,59310,102790
1548670,59307,102780
1548723,59298,102824
1548776,59300,102816
1548830,59282,102815
1548882,59309,102799
1548935,59262,102816
1548990,59268,102792
1549041,59259,102797
1549095,59261,102798
1549149,59289,102820
1549201,59284,102793
1549254,59260,102786
1549310,59261,102788
1549360,59271,102798
1549413,59270,102786
1549470,59253,102785
1549520,59243,102791
1549573,59262,102793
1549629,59273,102805
1549679,59272,102789
1549732,59295,102816
1549789,59298,102827
1549838,59303,102818
1549891,59302,102825
1549950,59317,102836
1549998,59322,102856
1550051,59338,102855
1550109,59333,102862
1550157,59341,102868
1550210,59344,102876
1550269,59356,102877
1550316,59352,102874
1550370,59339,102869
1550430,59336,102869
1550476,59339,102862
1550529,59349,102873
1550589,59348,102864
1550635,59339,102867
1550688,59345,102865
1550749,59347,102869
1550795,59346,102859
1550848,59338,102860
1550910,59344,102870
1550954,59344,102845
1551007,59343,102846
1551070,59347,102849
1551113,59358,102866
1551166,59342,102855
1551220,59351,102843
1551273,59367,102844
1551326,59364,102849
1551379,59342,102832
1551432,59351,102853
1551485,59389,102867
1551538,59325,102876
1551591,59332,102858
1551645,59334,102833
1551698,59357,102854
1551751,59377,102850
1551804,59343,102872
1551857,59360,102857
1551910,59373,102859
1551963,59372,102869
1552016,59371,102850
1552071,59341,102826
1552123,59326,102837
1552176,59350,102863
1552230,59369,102886
1552282,59359,102856
1552335,59328,102825
1552390,59319,102824
1552441,59326,102830
1552495,59353,102848
1552551,59359,102855
1552601,59359,102850
1552654,59332,102814
1552710,59339,102826
1552760,59329,102829
1552813,59341,102842
1552870,59352,102839
1552920,59349,102814
1552973,59316,102817
1553031,59305,102827
1553079,59332,102828
1553132,59345,102844
1553190,59348,102850
1553238,59361,102859
1553291,59360,102854
1553350,59353,102836
1553398,59351,102839
1553451,59366,102836
1553511,59375,102845
1553557,59366,102834
1553610,59340,102813
1553671,59330,102816
1553716,59358,102812
1553770,59337,102821
1553830,59348,102818
1553876,59344,102817
1553929,59345,102813
1553991,59343,102804
1554035,59341,102791
1554088,59352,102814
1554151,59367,102828
1554195,59337,102839
1554248,59348,102832
1554312,59315,102820
1554354,59355,102812
1554407,59325,102813
1554460,59334,102807
1554513,59350,102806
1554566,59350,102822
1554620,59325,102804
1554673,59330,102808
1554726,59321,102795
1554779,59345,102819
1554832,59358,102819
1554885,59336,102808
1554938,59347,102821
1554991,59349,102815
1555045,59348,102805
1555098,59338,102810
1555152,59316,102791
1555204,59322,102792
1555257,59316,102779
1555311,59332,102821
1555363,59327,102817
1555416,59367,102846
1555471,59382,102850
1555523,59393,102867
1555576,59394,102872
1555632,59394,102879
1555682,59416,102889
1555735,59436,102915
1555792,59450,102905
1555841,59424,102901
1555895,59409,102899
1555951,59429,102902
1556001,59428,102901
1556054,59419,102887
1556112,59420,102902
1556160,59419,102905
1556213,59432,102879
1556272,59415,102870
1556320,59415,102881
1556373,59413,102886
1556431,59405,102857
1556479,59406,102865
1556532,59410,102868
1556592,59427,102866
1556638,59408,102861
1556691,59381,102844
1556752,59399,102835
1556798,59420,102841
1556851,59382,102861
1556913,59381,102835
1556957,59410,102862
1557010,59353,102862
1557073,59347,102832
1557116,59363,102830
1557170,59383,102847
1557232,59389,102844
1557276,59364,102876
1557329,59393,102851
1557393,59373,102844
1557435,59390,102856
1557488,59371,102849
1557541,59389,102855
1557595,59395,102854
1557648,59385,102849
1557701,59383,102862
1557754,59378,102852
1557807,59378,102842
1557860,59363,102850
1557913,59365,102844
1557966,59368,102826
1558020,59359,102847
1558073,59372,102842
1558126,59371,102842
1558179,59375,102838
1558233,59365,102825
1558285,59369,102836
1558338,59360,102823
1558393,59355,102826
1558445,59342,102828
1558498,59344,102824
1558552,59342,102825
1558604,59329,102813
1558657,59333,102828
1558713,59346,102829
1558763,59339,102791
1558816,59326,102813
1558873,59331,102836
1558923,59346,102826
1558976,59297,102813
1559032,59322,102802
1559082,59329,102802
1559135,59331,102806
1559192,59321,102811
1559241,59320,102824
1559295,59337,102784
1559353,59322,102790
1559401,59336,102800
1559454,59306,102805
1559512,59333,102797
1559560,59350,102797
1559613,59278,102762
1559672,59295,102781
1559720,59305,102789
1559773,59298,102780
1559833,59321,102788
1559879,59311,102772
1559932,59254,102787
1559994,59280,102781
1560038,59312,102777
1560091,59246,102776
1560154,59264,102764
1560198,59263,102754
1560251,59283,102774
1560313,59289,102764
1560357,59260,102772
1560410,59280,102765
1560473,59279,102770
1560516,59256,102770
1560570,59262,102761
1560623,59247,102757
1560676,59254,102768
1560729,59263,102758
1560782,59254,102750
1560835,59225,102747
1560888,59236,102751
1560941,59253,102757
1560995,59250,102759
1561048,59231,102728
1561101,59237,102736
1561154,59246,102751
1561207,59232,102754
1561260,59244,102738
1561313,59227,102746
1561366,59233,102734
1561420,59213,102730
1561474,59209,102717
1561526,59198,102716
1561579,59211,102743
1561633,59218,102751
1561685,59198,102725
1561738,59195,102723
1561793,59203,102734
1561845,59195,102705
1561898,59193,102706
1561954,59186,102704
1562004,59184,102702
1562057,59171,102705
1562113,59179,102687
1562163,59192,102688
1562216,59188,102699
1562273,59167,102690
1562323,59156,102703
1562376,59180,102691
1562434,59192,102682
1562482,59158,102683
1562535,59149,102662
1562594,59186,102658
1562641,59174,102678
1562695,59133,102683
1562755,59139,102671
1562801,59126,102677
1562854,59142,102697
1562914,59151,102692
1562960,59119,102681
1563013,59138,102685
1563074,59157,102676
1563120,59150,102670
1563173,59110,102667
1563235,59115,102659
1563279,59110,102658
1563332,59112,102664
1563394,59138,102650
1563438,59104,102645
1563491,59097,102656
1563554,59117,102655
1563598,59108,102660
1563651,59104,102658
1563704,59089,102639
1563757,59096,102642
1563810,59090,102636
1563863,59098,102642
1563916,59106,102643
1563970,59100,102639
1564023,59085,102629
1564076,59098,102640
1564129,59106,102634
1564182,59117,102656
1564235,59110,102645
1564288,59105,102662
1564341,59116,102646
1564395,59101,102644
1564448,59106,102639
1564501,59089,102640
1564555,59083,102625
1564607,59092,102635
1564660,59082,102625
1564715,59074,102661
1564766,59070,102627
1564820,59085,102628
1564874,59079,102625
1564926,59076,102623
1564979,59062,102601
1565035,59062,102603
1565085,59069,102620
1565138,59036,102599
1565195,59067,102603
1565245,59067,102597
1565298,59039,102588
1565354,59049,102604
1565404,59058,102600
1565457,59035,102582
1565515,59064,102579
1565563,59040,102592
1565616,59038,102573
1565675,59052,102598
1565723,59053,102586
1565776,59022,102614
1565836,59036,102596
1565882,59070,102601
1565935,59031,102609
1565996,59039,102605
1566041,59038,102594
1566095,59063,102613
1566155,59083,102627
1566201,59087,102620
1566254,59082,102628
1566316,59073,102635
1566360,59090,102644
1566413,59073,102645
1566476,59073,102643
1566520,59078,102642
1566573,59095,102673
1566635,59102,102651
1566679,59084,102669
1566732,59116,102649
1566796,59087,102635
1566838,59099,102656
1566891,59085,102659
1566945,59101,102666
1566998,59102,102667
1567051,59120,102644
1567104,59094,102668
1567157,59095,102662
1567210,59105,102648
1567263,59124,102665
1567316,59100,102648
1567370,59105,102670
1567423,59130,102682
1567476,59125,102675
1567529,59137,102690
1567582,59134,102681
1567636,59144,102675
1567688,59148,102697
1567741,59149,102706
1567796,59165,102735
1567848,59164,102708
1567901,59153,102686
1567955,59150,102692
1568007,59176,102709
1568060,59155,102691
1568115,59161,102696
1568166,59160,102709
1568220,59124,102714
1568276,59186,102725
1568326,59202,102727
1568379,59149,102724
1568437,59147,102726
1568485,59185,102703
1568538,59164,102732
1568597,59164,102728
1568645,59167,102727
1568698,59200,102739
1568756,59187,102742
1568804,59191,102737
1568857,59196,102746
1568917,59192,102749
1568963,59203,102746
1569016,59200,102752
1569077,59193,102763
1569123,59199,102749
1569176,59197,102754
1569236,59214,102773
1569282,59210,102765
1569335,59231,102770
1569396,59229,102765
1569441,59235,102787
1569495,59231,102786
1569557,59238,102778
1569601,59247,102788
1569654,59256,102811
1569716,59262,102813
1569760,59254,102840
1569813,59281,102821
1569876,59256,102819
1569920,59257,102806
1569973,59243,102811
1570026,59258,102824
1570079,59272,102817
1570132,59263,102825
1570185,59245,102822
1570238,59274,102818
1570291,59260,102810
1570345,59268,102807
1570398,59276,102810
1570451,59272,102809
1570504,59235,102799
1570557,59253,102792
1570610,59269,102807
1570663,59240,102801
1570716,59257,102789
1570770,59259,102802
1570823,59238,102772
1570877,59258,102792
1570929,59265,102801
1570982,59237,102762
1571036,59236,102774
1571088,59252,102791
1571141,59213,102780
1571198,59205,102771
1571248,59193,102744
1571301,59205,102787
1571357,59246,102776
1571407,59202,102764
1571460,59193,102771
1571517,59228,102772
1571566,59229,102752
1571620,59214,102753
1571678,59197,102772
1571726,59192,102786
1571779,59221,102756
1571837,59202,102765
1571885,59185,102759
1571938,59195,102754
1571997,59194,102755
1572045,59203,102760
1572098,59200,102760
1572158,59183,102756
1572204,59184,102743
1572257,59184,102745
1572317,59189,102744
1572363,59186,102751
1572416,59190,102730
1572477,59187,102741
1572523,59182,102744
1572576,59147,102726
1572638,59149,102732
1572682,59176,102717
1572735,59186,102745
1572798,59162,102738
1572841,59165,102760
1572895,59179,102747
1572957,59179,102720
1573001,59170,102729
1573054,59164,102727
1573107,59168,102731
1573160,59167,102727
1573213,59164,102720
1573266,59144,102711
1573320,59144,102726
1573373,59159,102731
1573426,59144,102720
1573479,59168,102732
1573532,59144,102708
1573585,59149,102711
1573638,59163,102725
1573691,59176,102742
1573745,59159,102697
1573798,59150,102706
1573851,59148,102729
1573904,59150,102728
1573958,59179,102700
1574010,59127,102725
1574063,59127,102731
1574118,59164,102725
1574170,59162,102722
1574223,59119,102719
1574279,59129,102723
1574329,59134,102718
1574382,59148,102714
1574438,59151,102718
1574488,59126,102721
1574541,59137,102725
1574598,59156,102710
1574648,59141,102700
1574701,59152,102716
1574759,59135,102727
1574807,59134,102739
1574860,59150,102724
1574919,59120,102715
1574966,59113,102714
1575020,59125,102713
1575078,59138,102721
1575126,59141,102738
1575179,59133,102709
1575239,59114,102694
1575285,59112,102708
1575338,59139,102726
1575399,59122,102724
1575445,59113,102720
1575498,59126,102735
1575558,59138,102732
1575604,59130,102720
1575657,59109,102736
1575719,59125,102742
1575763,59153,102714
1575816,59140,102725
1575879,59141,102738
1575923,59142,102737
1575976,59128,102728
1576038,59138,102723
1576082,59134,102732
1576135,59136,102732
1576188,59120,102709
1576241,59142,102715
1576294,59128,102715
1576348,59129,102722
1576401,59139,102734
1576454,59133,102721
1576507,59134,102721
1576560,59158,102723
1576613,59130,102707
1576666,59138,102715
1576719,59152,102708
1576773,59156,102745
1576826,59132,102691
1576879,59128,102718
1576932,59153,102722
1576985,59103,102716
1577040,59109,102709
1577091,59109,102726
1577144,59103,102734
1577199,59149,102757
1577251,59151,102730
1577304,59112,102724
1577360,59111,102734
1577410,59133,102718
1577463,59113,102706
1577520,59093,102726
1577569,59109,102727
1577623,59084,102702
1577679,59096,102702
1577729,59127,102704
1577782,59114,102709
1577840,59100,102714
1577888,59115,102706
1577941,59102,102725
1578000,59101,102715
1578048,59100,102710
1578101,59110,102710
1578159,59111,102708
1578207,59100,102708
1578260,59095,102691
1578319,59105,102699
1578366,59104,102711
1578419,59097,102709
1578480,59097,102713
1578526,59101,102702
1578579,59104,102713
1578639,59092,102700
1578685,59077,102686
1578738,59102,102719
1578799,59098,102714
1578844,59093,102691
1578898,59081,102679
1578960,59080,102694
1579004,59086,102675
1579057,59084,102698
1579119,59092,102689
1579163,59087,102720
1579216,59091,102678
1579279,59067,102662
1579323,59076,102662
1579376,59076,102668
1579429,59058,102671
1579482,59069,102659
1579535,59078,102699
1579588,59036,102659
1579641,59052,102664
1579694,59066,102650
1579748,59064,102652
1579801,59075,102642
1579854,59081,102656
1579907,59034,102664
1579961,59031,102632
1580013,59073,102661
1580066,59050,102672
1580121,59030,102637
1580173,59031,102653
1580226,59058,102676
1580280,59087,102692
1580332,59037,102651
1580385,59067,102663
1580440,59086,102665
1580491,59069,102654
1580544,59071,102660
1580601,59057,102665
1580651,59053,102668
1580704,59071,102672
1580760,59079,102673
1580810,59068,102678
1580863,59061,102669
1580920,59059,102661
1580969,59067,102657
1581023,59064,102666
1581081,59059,102685
1581129,59075,102689
1581182,59079,102647
1581240,59042,102646
1581288,59062,102662
1581341,59064,102636
1581400,59055,102635
1581448,59061,102666
1581501,59056,102654
1581561,59052,102664
1581607,59070,102648
1581660,59051,102656
1581721,59044,102644
1581766,59039,102624
1581819,59067,102662
1581880,59075,102674
1581926,59075,102637
1581979,59044,102639
1582041,59061,102639
1582085,59066,102627
1582138,59091,102637
1582201,59059,102634
1582244,59064,102669
1582298,59080,102632
1582360,59070,102630
1582404,59069,102640
1582457,59061,102636
1582510,59066,102625
1582563,59084,102625
1582616,59090,102631
1582669,59046,102607
1582723,59063,102637
1582776,59069,102629
1582829,59059,102614
1582882,59092,102629
1582935,59064,102617
1582988,59066,102636
1583041,59111,102646
1583094,59105,102644
1583148,59079,102635
1583202,59054,102618
1583254,59055,102627
1583307,59082,102641
1583361,59103,102627
1583413,59063,102639
1583466,59095,102643
1583521,59102,102649
1583573,59105,102645
1583626,59091,102644
1583682,59079,102647
1583732,59097,102638
1583785,59099,102639
1583842,59090,102643
1583891,59086,102650
1583944,59094,102653
1584001,59101,102640
1584051,59107,102636
1584104,59118,102644
1584162,59101,102658
1584210,59107,102685
1584263,59141,102654
1584322,59108,102656
1584369,59094,102666
1584423,59106,102662
1584481,59112,102656
1584529,59109,102650
1584582,59106,102652
1584642,59104,102666
1584688,59116,102658
1584741,59116,102656
1584802,59111,102665
1584848,59111,102669
1584901,59125,102665
1584961,59127,102654
1585007,59127,102663
1585060,59113,102658
1585121,59124,102661
1585166,59129,102629
1585219,59122,102650
1585282,59125,102644
1585326,59134,102666
1585379,59119,102660
1585441,59135,102656
1585485,59150,102662
1585538,59131,102653
1585591,59137,102657
1585644,59159,102659
1585698,59161,102658
1585751,59116,102625
1585804,59120,102638
1585857,59136,102644
1585910,59092,102656
1585963,59098,102641
1586016,59094,102636
1586069,59134,102665
1586123,59141,102654
1586176,59138,102683
1586229,59151,102656
1586283,59116,102664
1586335,59137,102672
1586388,59146,102655
1586443,59116,102640
1586494,59109,102658
1586548,59122,102643
1586602,59123,102665
1586654,59120,102643
1586707,59109,102651
1586763,59105,102655
1586813,59124,102646
1586866,59116,102649
1586923,59111,102653
1586973,59111,102656
1587026,59115,102645
1587082,59132,102638
1587132,59116,102646
1587185,59120,102642
1587242,59115,102630
1587291,59101,102652
1587344,59111,102643
1587403,59101,102647
1587451,59097,102650
1587504,59108,102665
1587562,59113,102651
1587610,59101,102646
1587663,59114,102662
1587722,59126,102665
1587769,59119,102660
1587823,59118,102642
1587883,59097,102643
1587929,59100,102646
1587982,59102,102635
1588042,59106,102630
1588088,59106,102648
1588141,59083,102643
1588202,59111,102647
1588248,59094,102635
1588301,59098,102633
1588363,59110,102643
1588407,59101,102619
1588460,59097,102637
1588523,59106,102626
1588566,59122,102656
1588619,59087,102642
1588673,59085,102640
1588726,59117,102642
1588779,59118,102628
1588832,59085,102656
1588885,59073,102645
1588938,59112,102625
1588991,59031,102601
1589044,59014,102583
1589098,59014,102575
1589151,59050,102611
1589204,59047,102615
1589257,59037,102642
1589310,59070,102624
1589363,59072,102637
1589416,59077,102636
1589469,59065,102637
1589524,59059,102618
1589576,59053,102635
1589629,59077,102634
1589683,59066,102646
1589735,59054,102629
1589788,59055,102623
1589843,59059,102620
1589894,59039,102618
1589948,59046,102608
1590004,59040,102614
1590054,59040,102622
1590107,59022,102615
1590163,59040,102611
1590213,59032,102615
1590266,59033,102624
1590323,59038,102610
1590373,59037,102592
1590426,59025,102613
1590484,59031,102619
1590532,59043,102615
1590585,59037,102598
1590644,59004,102590
1590691,59009,102596
1590744,59019,102603
1590803,59028,102609
1590851,59028,102600
1590904,59046,102589
1590964,59015,102594
1591010,59006,102573
1591063,59013,102582
1591124,59016,102581
1591169,59036,102593
1591223,59018,102594
1591283,59020,102610
1591329,59029,102613
1591382,59039,102607
1591444,59039,102591
1591488,59036,102608
1591541,59087,102638
1591604,59075,102636
1591648,59104,102697
1591701,59102,102683
1591765,59074,102675
1591807,59116,102683
1591860,59073,102680
1591913,59097,102697
1591966,59130,102696
1592019,59130,102697
1592073,59062,102684
1592126,59071,102684
1592179,59087,102691
1592232,59101,102688
1592285,59113,102678
1592338,59081,102669
1592391,59082,102691
1592444,59111,102692
1592498,59107,102695
1592551,59100,102690
1592605,59082,102676
1592657,59102,102692
1592710,59091,102686
1592765,59086,102689
1592816,59082,102693
1592869,59097,102699
1592924,59102,102695
1592976,59093,102689
1593029,59092,102682
1593085,59094,102681
1593135,59093,102678
1593188,59089,102680
1593245,59077,102680
1593294,59071,102677
1593348,59069,102686
1593404,59079,102674
1593454,59084,102670
1593507,59080,102679
1593565,59067,102700
1593613,59091,102709
1593666,59121,102674
1593725,59081,102692
1593773,59086,102683
1593826,59085,102679
1593884,59087,102679
1593932,59088,102686
1593985,59087,102685
1594044,59085,102703
1594091,59093,102694
1594144,59091,102684
1594205,59076,102671
1594251,59085,102679
1594304,59083,102690
1594364,59095,102680
1594410,59093,102697
1594463,59091,102712
1594524,59115,102699
1594569,59089,102667
1594623,59117,102703
1594685,59121,102691
1594729,59125,102687
1594782,59080,102680
1594844,59113,102691
1594888,59136,102714
1594941,59088,102700
1594994,59079,102701
1595048,59120,102708
1595101,59132,102706
1595154,59088,102706
1595207,59065,102699
1595260,59093,102694
1595313,59068,102698
1595366,59078,102693
1595419,59087,102688
1595473,59079,102688
1595526,59082,102697
1595579,59095,102732
1595632,59107,102687
1595686,59064,102691
1595738,59080,102704
1595791,59083,102706
1595846,59069,102694
1595898,59061,102695
1595951,59070,102676
1596005,59067,102696
1596057,59044,102677
1596110,59049,102680
1596165,59071,102692
1596216,59071,102685
1596269,59058,102673
1596326,59058,102675
1596376,59044,102677
1596429,59043,102676
1596485,59068,102665
1596535,59053,102659
1596588,59039,102653
1596645,59038,102669
1596694,59049,102672
1596748,59029,102654
1596806,59013,102647
1596854,59007,102658
1596907,59049,102682
1596965,59039,102670
1597013,59019,102662
1597066,59040,102658
1597125,59030,102658
1597173,59018,102668
1597226,59037,102656
1597286,59035,102686
1597332,59053,102668
1597385,59032,102623
1597446,58971,102605
1597491,58986,102640
1597544,59049,102672
1597605,59039,102661
1597651,58997,102631
1597704,59032,102673
1597766,59065,102668
1597810,59043,102669
1597863,59064,102668
1597926,59062,102677
1597969,59111,102735
1598023,59084,102668
1598085,59023,102636
1598129,59022,102659
1598182,59013,102678
1598235,59004,102646
1598288,58996,102635
1598341,58989,102661
1598394,58956,102651
1598448,58964,102643
1598501,58970,102637
1598554,59009,102670
1598607,59012,102656
1598660,58979,102661
1598713,58996,102665
1598766,58993,102637
1598819,58972,102646
1598873,58972,102641
1598927,58958,102631
1598979,58968,102654
1599032,58976,102646
1599086,58967,102659
1599138,58945,102651
1599191,58972,102657
1599246,58969,102650
1599298,58961,102645
1599351,58962,102631
1599407,58954,102633
1599457,58960,102637
1599510,58950,102624
1599567,58942,102623
1599616,58948,102641
1599669,58934,102640
1599726,58964,102655
1599776,58961,102629
1599829,58925,102630
1599887,58923,102642
1599935,58933,102641
1599988,58948,102628
1600047,58910,102627
1600094,58918,102634
1600148,58942,102642
1600206,58922,102623
1600254,58900,102608
1600307,58920,102620
1600367,58925,102643
1600413,58936,102623
1600466,58909,102610
1600527,58915,102605
1600573,58908,102592
1600626,58909,102613
1600686,58921,102609
1600732,58924,102602
1600785,58878,102586
1600846,58909,102599
1600891,58894,102571
1600944,58909,102595
1601007,58905,102589
1601051,58918,102636
1601104,58898,102612
1601168,58875,102610
1601210,58912,102601
1601263,58866,102607
1601316,58883,102606
1601369,58890,102595
1601423,58894,102593
1601476,58862,102594
1601529,58858,102606
1601582,58892,102602
1601635,58861,102599
1601688,58861,102598
1601741,58864,102584
1601794,58865,102606
1601848,58879,102612
1601901,58878,102616
1601954,58876,102599
1602008,58852,102566
1602060,58861,102596
1602113,58864,102593
1602168,58847,102585
1602219,58837,102591
1602273,58867,102584
1602327,58861,102586
1602379,58857,102583
1602432,58853,102593
1602488,58861,102609
1602538,58859,102570
1602591,58829,102583
1602648,58831,102587
1602698,58838,102585
1602751,58816,102581
1602807,58831,102575
1602857,58828,102561
1602910,58838,102583
1602967,58831,102584
1603016,58823,102595
1603069,58857,102564
1603128,58823,102561
1603176,58823,102563
1603229,58816,102564
1603287,58811,102542
1603335,58818,102558
1603388,58814,102570
1603447,58810,102563
1603494,58809,102562
1603548,58798,102547
1603608,58817,102545
1603654,58822,102548
1603707,58772,102525
1603767,58811,102526
1603813,58818,102552
1603866,58773,102530
1603929,58780,102526
1603973,58759,102499
1604026,58784,102553
1604088,58815,102558
1604132,58761,102541
1604185,58758,102548
1604249,58759,102553
1604291,58759,102553
1604344,58770,102555
1604398,58785,102553
1604451,58811,102563
1604504,58818,102549
1604557,58806,102563
1604610,58784,102579
1604663,58813,102569
1604716,58793,102569
1604769,58786,102565
1604823,58783,102560
1604876,58788,102557
1604929,58773,102554
1604982,58756,102591
1605035,58821,102572
1605089,58774,102564
1605141,58767,102559
1605194,58851,102612
1605249,58843,102579
1605301,58793,102584
1605354,58817,102612
1605408,58839,102619
1605460,58806,102590
1605513,58787,102607
1605568,58816,102612
1605619,58818,102600
1605673,58792,102605
1605729,58792,102602
1605779,58794,102608
1605832,58796,102610
1605888,58814,102608
1605938,58810,102604
1605991,58825,102623
1606048,58815,102617
1606098,58811,102633
1606151,58830,102615
1606209,58826,102616
1606257,58809,102606
1606310,58792,102604
1606368,58804,102592
1606416,58824,102607
1606469,58791,102589
1606528,58810,102595
1606576,58795,102611
1606629,58794,102590
1606689,58798,102586
1606735,58776,102599
1606788,58779,102605
1606849,58791,102606
1606894,58802,102607
1606948,58723,102594
1607010,58750,102585
1607054,58752,102587
1607107,58750,102588
1607169,58775,102588
1607213,58746,102561
1607266,58741,102587
1607329,58774,102581
1607373,58728,102582
1607426,58740,102583
1607479,58743,102581
1607532,58763,102583
1607585,58741,102572
1607638,58748,102571
1607691,58736,102572
1607744,58736,102577
1607798,58728,102566
1607851,58723,102556
1607904,58723,102553
1607957,58741,102547
1608010,58734,102569
1608063,58726,102598
1608116,58749,102566
1608169,58729,102578
1608223,58740,102576
1608276,58720,102577
1608330,58725,102571
1608382,58727,102585
1608435,58728,102586
1608489,58725,102600
1608541,58721,102585
1608594,58729,102597
1608649,58737,102589
1608701,58737,102590
1608754,58750,102595
1608810,58758,102612
1608860,58752,102611
1608913,58746,102613
1608970,58771,102632
1609019,58779,102601
1609073,58752,102607
1609129,58744,102604
1609179,58754,102615
1609232,58742,102588
1609290,58762,102603
1609338,58741,102610
1609391,58732,102591
1609450,58760,102620
1609498,58767,102614
1609551,58706,102613
1609611,58726,102612
1609657,58724,102617
1609710,58723,102623
1609770,58746,102607
1609816,58718,102607
1609869,58715,102602
1609930,58734,102603
1609976,58727,102607
1610029,58713,102594
1610091,58709,102606
1610135,58726,102597
1610188,58709,102600
1610251,58702,102609
1610294,58705,102588
1610348,58709,102601
1610410,58702,102605
1610454,58701,102609
1610507,58706,102600
1610560,58692,102571
1610613,58702,102587
1610666,58694,102596
1610719,58692,102581
1610773,58700,102596
1610826,58701,102602
1610879,58684,102594
1610932,58681,102594
1610985,58702,102577
1611038,58697,102599
1611091,58688,102581
1611144,58679,102609
1611198,58699,102597
1611251,58683,102592
1611304,58689,102588
1611357,58688,102576
1611411,58685,102575
1611463,58685,102590
1611516,58679,102594
1611571,58705,102620
1611623,58696,102603
1611676,58683,102589
1611730,58680,102590
1611782,58686,102595
1611835,58674,102581
1611891,58699,102569
1611941,58672,102579
1611994,58652,102561
1612051,58694,102603
1612101,58692,102577
1612154,58660,102597
1612212,58642,102577
1612260,58691,102568
1612313,58654,102597
1612372,58653,102594
1612419,58654,102592
1612473,58669,102601
1612531,58672,102595
1612579,58665,102580
1612632,58662,102588
1612692,58655,102586
1612738,58663,102592
1612791,58662,102587
1612852,58647,102587
1612898,58641,102575
1612951,58657,102583
1613011,58662,102593
1613057,58661,102579
1613110,58651,102582
1613172,58640,102578
1613216,58640,102575
1613269,58617,102557
1613332,58638,102558
1613376,58629,102540
1613429,58630,102555
1613491,58634,102561
1613535,58632,102587
1613588,58654,102564
1613651,58630,102562
1613694,58624,102561
1613748,58632,102563
1613801,58647,102576
1613854,58650,102567
1613907,58639,102570
1613960,58619,102551
1614013,58633,102561
1614066,58640,102539
1614119,58641,102546
1614173,58642,102546
1614226,58657,102544
1614279,58639,102546
1614332,58644,102544
1614385,58658,102552
1614438,58650,102558
1614491,58657,102536
1614544,58654,102546
1614598,58636,102534
1614652,58654,102545
1614704,58678,102538
1614757,58637,102513
1614811,58641,102522
1614863,58673,102528
1614916,58653,102507
1614971,58656,102520
1615023,58659,102509
1615076,58645,102512
1615132,58681,102519
1615182,58687,102521
1615235,58638,102505
1615293,58635,102502
1615341,58683,102492
1615394,58659,102502
1615453,58645,102512
1615501,58654,102519
1615554,58693,102508
1615612,58685,102511
1615660,58660,102496
1615713,58690,102506
1615772,58698,102490
1615819,58701,102507
1615873,58689,102481
1615933,58676,102481
1615979,58673,102484
1616032,58689,102473
1616092,58707,102481
1616138,58682,102474
1616191,58707,102479
1616252,58706,102474
1616298,58707,102469
1616351,58691,102462
1616413,58697,102460
1616457,58700,102443
1616510,58725,102463
1616572,58707,102448
1616616,58698,102445
1616669,58719,102424
1616732,58726,102429
1616776,58716,102443
1616829,58717,102432
1616882,58727,102436
1616935,58741,102439
1616988,58724,102419
1617041,58739,102431
1617094,58744,102427
1617148,58754,102434
1617201,58742,102427
1617254,58748,102403
1617307,58746,102398
1617360,58763,102426
1617413,58768,102405
1617466,58758,102434
1617519,58795,102416
1617573,58789,102409
1617626,58794,102410
1617679,58797,102404
1617733,58799,102393
1617785,58810,102418
1617838,58815,102403
1617893,58828,102427
1617944,58835,102419
1617998,58821,102405
1618052,58835,102405
1618104,58837,102401
1618157,58843,102393
1618213,58865,102398
1618263,58856,102395
1618316,58841,102389
1618373,58872,102402
1618423,58881,102364
1618476,58863,102368
1618532,58862,102368
1618582,58862,102377
1618635,58851,102372
1618693,58892,102383
1618741,58857,102370
1618794,58876,102370
1618853,58895,102384
1618901,58908,102363
1618954,58890,102364
1619014,58894,102356
1619060,58923,102361
1619113,58899,102347
1619174,58890,102353
1619219,58893,102341
1619273,58914,102339
1619333,58920,102342
1619379,58915,102333
1619432,58903,102331
1619494,58912,102328
1619538,58920,102332
1619591,58912,102338
1619654,58918,102340
1619698,58920,102331
1619751,58940,102329
1619813,58932,102326
1619857,58931,102349
1619910,58957,102318
1619974,58924,102298
1620016,58929,102316
1620069,58933,102316
1620123,58942,102291
1620176,58940,102298
1620229,58949,102336
1620282,58930,102303
1620335,58939,102304
1620388,58951,102276
1620441,58951,102302
1620494,58953,102289
1620548,58957,102296
1620601,58951,102304
1620654,58956,102292
1620707,58957,102281
1620760,58969,102274
1620814,58965,102275
1620866,58970,102292
1620919,58995,102285
1620974,58994,102317
1621026,58997,102309
1621079,59025,102319
1621133,59038,102319
1621185,59041,102333
1621238,59052,102342
1621293,59056,102336
1621344,59050,102314
1621398,59064,102322
1621454,59070,102328
1621504,59071,102323
1621557,59045,102303
1621613,59059,102307
1621663,59080,102312
1621716,59058,102279
1621773,59050,102301
1621823,59061,102330
1621876,59088,102282
1621934,59069,102294
1621982,59075,102296
1622035,59041,102292
1622095,59033,102279
1622141,59078,102279
1622194,59043,102279
1622255,59040,102281
1622301,59044,102271
1622354,59055,102275
1622414,59081,102269
1622460,59048,102269
1622513,59063,102264
1622574,59072,102261
1622619,59066,102259
1622673,59050,102254
1622735,59049,102240
1622779,59046,102228
1622832,59079,102248
1622894,59066,102254
1622938,59056,102258
1622991,59082,102230
1623054,59067,102233
1623098,59065,102241
1623151,59069,102249
1623204,59067,102233
1623257,59069,102233
1623310,59063,102233
1623363,59066,102236
1623416,59061,102231
1623469,59068,102234
1623523,59066,102249
1623576,59083,102254
1623629,59090,102261
1623682,59116,102277
1623735,59131,102283
1623788,59133,102311
1623841,59172,102309
1623894,59162,102297
1623948,59168,102310
1624001,59173,102298
1624055,59161,102276
1624107,59158,102287
1624160,59150,102293
1624214,59155,102297
1624266,59163,102281
1624319,59140,102281
1624374,59154,102280
1624426,59151,102280
1624479,59157,102273
1624535,59173,102272
1624585,59144,102280
1624638,59133,102268
1624695,59163,102272
1624744,59165,102243
1624798,59128,102262
1624856,59118,102267
1624904,59120,102283
1624957,59164,102261
1625015,59156,102253
1625063,59115,102249
1625116,59134,102255
1625175,59148,102248
1625223,59137,102238
1625276,59129,102240
1625336,59118,102235
1625382,59108,102231
1625435,59113,102231
1625495,59122,102234
1625541,59109,102232
1625594,59120,102231
1625655,59127,102223
1625701,59131,102235
1625754,59124,102232
1625816,59133,102215
1625860,59142,102229
1625913,59125,102231
1625976,59115,102231
1626019,59116,102240
1626072,59111,102233
1626135,59119,102229
1626179,59105,102220
1626232,59103,102225
1626285,59119,102232
1626338,59124,102228
1626391,59111,102208
1626444,59114,102230
1626497,59118,102234
1626551,59114,102222
1626604,59109,102212
1626657,59112,102221
1626710,59100,102206
1626763,59094,102198
1626816,59106,102201
1626869,59107,102209
1626922,59098,102175
1626976,59079,102177
1627029,59086,102197
1627082,59092,102172
1627136,59104,102172
1627188,59073,102193
1627241,59076,102198
1627296,59104,102204
1627347,59110,102188
1627401,59044,102187
1627457,59052,102182
1627507,59049,102170
1627560,59058,102168
1627616,59072,102168
1627666,59039,102168
1627719,59045,102168
1627776,59055,102162
1627826,59052,102148
1627879,59046,102171
1627937,59034,102177
1627985,59046,102186
1628038,59063,102173
1628097,59023,102165
1628144,59030,102170
1628197,59023,102135
1628256,59019,102131
1628304,59019,102153
1628357,59027,102139
1628417,59017,102141
1628463,59009,102150
1628516,59000,102142
1628577,58994,102136
1628622,58979,102137
1628676,59014,102148
1628736,59000,102151
1628782,59002,102146
1628835,58997,102119
1628897,58977,102142
1628941,58997,102109
1628994,58992,102120
1629057,58974,102113
1629101,58991,102140
1629154,58983,102130
1629216,58981,102115
1629260,58982,102139
1629313,58987,102138
1629366,58985,102115
1629419,58988,102113
1629472,58993,102117
1629526,58965,102109
1629579,58964,102120
1629632,58961,102114
1629685,58953,102122
1629738,58993,102125
1629791,58947,102118
1629844,58956,102121
1629897,58977,102129
1629951,58976,102135
1630004,58976,102108
1630058,58957,102118
1630110,58975,102127
1630163,58967,102109
1630218,58958,102099
1630269,58947,102121
1630322,58980,102122
1630377,58988,102140
1630429,58984,102142
1630482,58992,102163
1630538,58993,102164
1630588,59025,102172
1630641,59026,102186
1630698,59018,102178
1630747,59011,102178
1630801,59014,102163
1630857,59006,102162
1630907,59007,102162
1630960,59017,102174
1631018,59000,102177
1631066,59002,102197
1631119,59017,102170
1631178,58985,102175
1631226,58984,102170
1631279,58991,102184
1631337,58997,102154
1631385,58964,102154
1631438,59004,102172
1631497,59000,102163
1631544,58968,102136
1631597,58974,102148
1631658,58988,102158
1631704,58998,102168
1631757,59013,102169
1631817,59016,102154
1631863,59006,102173
1631916,58976,102167
1631977,58997,102171
1632022,58990,102149
1632076,59006,102189
1632138,59043,102195
1632182,59065,102197
1632235,59006,102182
1632299,59007,102198
1632341,59062,102242
1632394,59066,102260
1632447,59070,102261
1632501,59085,102247
1632554,59076,102233
1632607,59086,102270
1632660,59072,102262
1632713,59081,102257
1632766,59064,102260
1632819,59071,102261
1632872,59053,102229
1632926,59047,102249
1632979,59055,102248
1633032,59050,102267
1633085,59077,102233
1633139,59004,102201
1633191,59029,102232
1633244,59064,102243
1633299,59044,102216
1633351,59033,102224
1633404,58985,102168
1633458,59000,102212
1633510,59039,102225
1633563,58983,102179
